timestamp: CODE VALUEBYTE(S)
1719834661,384: 80 F9 08 
1719834661,384: 80 F8 E3 
1719834661,384: 80 F8 C9 
1719834661,384: 80 F8 D6 
1719834661,384: 80 F9 0B 
1719834661,384: 80 F9 54 
1719834661,384: 80 F9 9F 
1719834661,384: 80 F9 E1 
1719834661,384: 80 FA 0D 
1719834661,384: 80 FA 1A 
1719834661,384: 80 FA 0A 
1719834661,384: 80 F9 F2 
1719834661,384: 80 F9 E9 
1719834661,384: 80 F9 FE 
1719834661,384: 80 FA 2A 
1719834661,415: 80 FA 60 
1719834661,415: 80 FA 92 
1719834661,415: 80 FA B9 
1719834661,415: 80 FA D3 
1719834661,415: 80 FA DF 
1719834661,415: 80 FA E4 
1719834661,415: 80 FA EC 
1719834661,415: 80 FA FE 
1719834661,415: 80 FB 1B 
1719834661,415: 80 FB 3B 
1719834661,415: 80 FB 5A 
1719834661,415: 80 FB 77 
1719834661,415: 80 FB 90 
1719834661,415: 80 FB A5 
1719834661,415: 80 FB B3 
1719834661,415: 80 FB BC 
1719834661,415: 80 FB C7 
1719834661,415: 80 FB DB 
1719834661,415: 80 FB FA 
1719834661,415: 80 FC 1A 
1719834661,415: 80 FC 30 
1719834661,415: 80 FC 3A 
1719834661,446: 80 FC 3E 
1719834661,446: 80 FC 42 
1719834661,446: 80 FC 4B 
1719834661,446: 80 FC 54 
1719834661,446: 80 FC 58 
1719834661,446: 80 FC 59 
1719834661,446: 80 FC 5B 
1719834661,446: 80 FC 65 
1719834661,446: 80 FC 74 
1719834661,446: 80 FC 83 
1719834661,446: 80 FC 88 
1719834661,446: 80 FC 86 
1719834661,446: 80 FC 86 
1719834661,446: 80 FC 90 
1719834661,446: 80 FC 9F 
1719834661,477: 80 FC A4 
1719834661,477: 80 FC 97 
1719834661,477: 80 FC 80 
1719834661,477: 80 FC 6F 
1719834661,477: 80 FC 68 
1719834661,477: 80 FC 63 
1719834661,477: 80 FC 57 
1719834661,477: 80 FC 47 
1719834661,509: 80 FC 3B 
1719834661,509: 80 FC 36 
1719834661,509: 80 FC 2D 
1719834661,509: 80 FC 1C 
1719834661,509: 80 FC 0D 
1719834661,509: 80 FC 12 
1719834661,509: 80 FC 26 
1719834661,509: 80 FC 32 
1719834661,509: 80 FC 22 
1719834661,509: 80 FC 03 
1719834661,509: 80 FB EE 
1719834661,509: 80 FB E9 
1719834661,509: 80 FB E1 
1719834661,509: 80 FB C2 
1719834661,509: 80 FB 9C 
1719834661,509: 80 FB 91 
1719834661,509: 80 FB AD 
1719834661,509: 80 FB CF 
1719834661,509: 80 FB D6 
1719834661,509: 80 FB CB 
1719834661,509: 80 FB DA 
1719834661,509: 80 FC 12 
1719834661,540: 80 FC 50 
1719834661,540: 80 FC 65 
1719834661,540: 80 FC 54 
1719834661,540: 80 FC 56 
1719834661,540: 80 FC 91 
1719834661,540: 80 FC EC 
1719834661,540: 80 FD 2F 
1719834661,540: 80 FD 48 
1719834661,540: 80 FD 5E 
1719834661,540: 80 FD 9A 
1719834661,540: 80 FD F5 
1719834661,540: 80 FE 43 
1719834661,540: 80 FE 66 
1719834661,540: 80 FE 6D 
1719834661,540: 80 FE 7F 
1719834661,570: 80 FE B2 
1719834661,570: 80 FE FC 
1719834661,570: 80 FF 41 
1719834661,570: 80 FF 6E 
1719834661,570: 80 FF 8C 
1719834661,570: 80 FF B0 
1719834661,570: 80 FF EC 
1719834661,570: 80 00 36 
1719834661,570: 80 00 71 
1719834661,570: 80 00 8A 
1719834661,570: 80 00 8F 
1719834661,570: 80 00 99 
1719834661,570: 80 00 B1 
1719834661,570: 80 00 CA 
1719834661,570: 80 00 D4 
1719834661,601: 80 00 D3 
1719834661,601: 80 00 DA 
1719834661,601: 80 00 EF 
1719834661,601: 80 01 07 
1719834661,601: 80 01 11 
1719834661,601: 80 01 10 
1719834661,601: 80 01 11 
1719834661,601: 80 01 1C 
1719834661,601: 80 01 2B 
1719834661,601: 80 01 36 
1719834661,601: 80 01 3C 
1719834661,601: 80 01 46 
1719834661,601: 80 01 55 
1719834661,601: 80 01 67 
1719834661,601: 80 01 75 
1719834661,633: 80 01 7B 
1719834661,633: 80 01 7A 
1719834661,633: 80 01 74 
1719834661,633: 80 01 6C 
1719834661,633: 80 01 65 
1719834661,633: 80 01 5F 
1719834661,633: 80 01 56 
1719834661,633: 80 01 48 
1719834661,633: 80 01 3A 
1719834661,633: 80 01 33 
1719834661,633: 80 01 36 
1719834661,633: 80 01 3C 
1719834661,633: 80 01 3C 
1719834661,633: 80 01 32 
1719834661,633: 80 01 22 
1719834661,663: 80 01 1B 
1719834661,663: 80 01 22 
1719834661,663: 80 01 2D 
1719834661,663: 80 01 24 
1719834661,663: 80 00 FB 
1719834661,663: 80 00 C4 
1719834661,663: 80 00 A1 
1719834661,663: 80 00 A7 
1719834661,663: 80 00 C7 
1719834661,663: 80 00 D7 
1719834661,663: 80 00 C2 
1719834661,663: 80 00 A2 
1719834661,663: 80 00 A2 
1719834661,663: 80 00 CF 
1719834661,663: 80 01 04 
1719834661,693: 80 01 13 
1719834661,693: 80 00 F5 
1719834661,693: 80 00 C8 
1719834661,693: 80 00 AE 
1719834661,693: 80 00 A7 
1719834661,693: 80 00 9C 
1719834661,693: 80 00 7F 
1719834661,693: 80 00 5F 
1719834661,693: 80 00 52 
1719834661,693: 80 00 5E 
1719834661,693: 80 00 71 
1719834661,693: 80 00 7D 
1719834661,693: 80 00 80 
1719834661,693: 80 00 87 
1719834661,693: 80 00 97 
1719834661,693: 80 00 AB 
1719834661,693: 80 00 B4 
1719834661,693: 80 00 AF 
1719834661,693: 80 00 A0 
1719834661,693: 80 00 94 
1719834661,693: 80 00 91 
1719834661,693: 80 00 8F 
1719834661,693: 80 00 88 
1719834661,723: 80 00 7B 
1719834661,723: 80 00 70 
1719834661,723: 80 00 6B 
1719834661,723: 80 00 6A 
1719834661,723: 80 00 68 
1719834661,723: 80 00 61 
1719834661,723: 80 00 59 
1719834661,723: 80 00 55 
1719834661,723: 80 00 54 
1719834661,723: 80 00 52 
1719834661,723: 80 00 4C 
1719834661,723: 80 00 40 
1719834661,723: 80 00 30 
1719834661,723: 80 00 21 
1719834661,723: 80 00 1C 
1719834661,755: 80 00 24 
1719834661,755: 80 00 37 
1719834661,755: 80 00 49 
1719834661,755: 80 00 4E 
1719834661,755: 80 00 49 
1719834661,755: 80 00 42 
1719834661,755: 80 00 40 
1719834661,755: 80 00 42 
1719834661,755: 80 00 44 
1719834661,755: 80 00 3F 
1719834661,755: 80 00 33 
1719834661,755: 80 00 22 
1719834661,755: 80 00 11 
1719834661,755: 80 00 08 
1719834661,755: 80 00 0C 
1719834661,785: 80 00 18 
1719834661,785: 80 00 23 
1719834661,785: 80 00 23 
1719834661,785: 80 00 1C 
1719834661,785: 80 00 1A 
1719834661,785: 80 00 20 
1719834661,785: 80 00 29 
1719834661,785: 80 00 2D 
1719834661,785: 80 00 2B 
1719834661,785: 80 00 2A 
1719834661,785: 80 00 2D 
1719834661,785: 80 00 30 
1719834661,785: 80 00 2F 
1719834661,785: 80 00 2D 
1719834661,785: 80 00 31 
1719834661,816: 80 00 3C 
1719834661,816: 80 00 45 
1719834661,816: 80 00 43 
1719834661,816: 80 00 39 
1719834661,816: 80 00 35 
1719834661,816: 80 00 3C 
1719834661,816: 80 00 44 
1719834661,816: 80 00 43 
1719834661,816: 80 00 3A 
1719834661,816: 80 00 33 
1719834661,816: 80 00 36 
1719834661,816: 80 00 3C 
1719834661,816: 80 00 36 
1719834661,816: 80 00 1F 
1719834661,816: 80 00 05 
1719834661,848: 80 FF F7 
1719834661,848: 80 FF FB 
1719834661,848: 80 00 00 
1719834661,848: 80 FF F9 
1719834661,848: 80 FF EB 
1719834661,848: 80 FF F0 
1719834661,848: 80 00 15 
1719834661,848: 80 00 4D 
1719834661,848: 80 00 78 
1719834661,848: 80 00 85 
1719834661,848: 80 00 8A 
1719834661,848: 80 00 A9 
1719834661,848: 80 00 E6 
1719834661,848: 80 01 1A 
1719834661,848: 80 01 23 
1719834661,848: 80 01 05 
1719834661,848: 80 00 E6 
1719834661,848: 80 00 DA 
1719834661,848: 80 00 D2 
1719834661,848: 80 00 BD 
1719834661,848: 80 00 A3 
1719834661,848: 80 00 9F 
1719834661,880: 80 00 B4 
1719834661,880: 80 00 C8 
1719834661,880: 80 00 BF 
1719834661,880: 80 00 A7 
1719834661,880: 80 00 A2 
1719834661,880: 80 00 B6 
1719834661,880: 80 00 C2 
1719834661,880: 80 00 A7 
1719834661,912: 80 00 6D 
1719834661,912: 80 00 38 
1719834661,912: 80 00 1C 
1719834661,912: 80 00 0D 
1719834661,912: 80 FF FC 
1719834661,912: 80 FF E9 
1719834661,912: 80 FF E2 
1719834661,912: 80 FF ED 
1719834661,912: 80 FF FB 
1719834661,912: 80 FF FF 
1719834661,912: 80 FF F9 
1719834661,912: 80 FF F5 
1719834661,912: 80 FF FE 
1719834661,912: 80 00 0F 
1719834661,912: 80 00 1B 
1719834661,943: 80 00 12 
1719834661,943: 80 FF F7 
1719834661,943: 80 FF DE 
1719834661,943: 80 FF E5 
1719834661,943: 80 00 0D 
1719834661,943: 80 00 38 
1719834661,943: 80 00 41 
1719834661,943: 80 00 25 
1719834661,943: 80 00 06 
1719834661,943: 80 00 03 
1719834661,943: 80 00 0E 
1719834661,943: 80 00 04 
1719834661,943: 80 FF E1 
1719834661,943: 80 FF CE 
1719834661,943: 80 FF E3 
1719834661,974: 80 00 01 
1719834661,974: 80 FF F8 
1719834661,974: 80 FF CB 
1719834661,974: 80 FF C0 
1719834661,974: 80 00 1A 
1719834661,974: 80 00 B9 
1719834661,974: 80 01 26 
1719834661,974: 80 01 0E 
1719834661,974: 80 00 A7 
1719834661,974: 80 00 6E 
1719834661,974: 80 00 8E 
1719834661,974: 80 00 9C 
1719834661,974: 80 00 08 
1719834661,974: 80 FE CA 
1719834661,974: 80 FD 81 
1719834662,006: 80 FC F8 
1719834662,006: 80 FD 89 
1719834662,006: 80 FF 24 
1719834662,006: 80 01 D8 
1719834662,006: 80 06 14 
1719834662,006: 80 0C 2C 
1719834662,006: 80 13 AA 
1719834662,006: 80 1B 53 
1719834662,006: 86 02 B9 
1719834662,006: 03 56 
1719834662,006: 80 21 FE 
1719834662,006: 80 27 5F 
1719834662,006: 80 2B CB 
1719834662,006: 80 2F 31 
1719834662,006: 80 30 70 
1719834662,006: 80 2E 0A 
1719834662,006: 80 27 A0 
1719834662,006: 80 1E AF 
1719834662,006: 80 15 B1 
1719834662,006: 80 0E 55 
1719834662,006: 80 08 8D 
1719834662,006: 80 03 53 
1719834662,006: 80 FE 3B 
1719834662,006: 80 FA 18 
1719834662,037: 80 F8 21 
1719834662,037: 80 F8 A4 
1719834662,037: 80 FA 9E 
1719834662,037: 80 FC 9C 
1719834662,037: 80 FD BF 
1719834662,037: 80 FE 0A 
1719834662,037: 80 FD E7 
1719834662,037: 80 FD 92 
1719834662,037: 80 FD 06 
1719834662,037: 80 FC 44 
1719834662,037: 80 FB 71 
1719834662,037: 80 FA C0 
1719834662,037: 80 FA 3C 
1719834662,037: 80 F9 CF 
1719834662,037: 80 F9 67 
1719834662,067: 80 F9 05 
1719834662,067: 80 F8 C8 
1719834662,067: 80 F8 D2 
1719834662,067: 80 F9 18 
1719834662,067: 80 F9 61 
1719834662,067: 80 F9 72 
1719834662,067: 80 F9 4B 
1719834662,067: 80 F9 22 
1719834662,067: 80 F9 2B 
1719834662,067: 80 F9 68 
1719834662,067: 80 F9 AB 
1719834662,067: 80 F9 D3 
1719834662,067: 80 F9 E4 
1719834662,067: 80 F9 ED 
1719834662,067: 80 F9 F0 
1719834662,098: 80 F9 E3 
1719834662,098: 80 F9 D1 
1719834662,098: 80 F9 DC 
1719834662,098: 80 FA 1D 
1719834662,098: 80 FA 81 
1719834662,098: 80 FA DB 
1719834662,098: 80 FB 11 
1719834662,098: 80 FB 2E 
1719834662,098: 80 FB 47 
1719834662,098: 80 FB 5C 
1719834662,098: 80 FB 5B 
1719834662,098: 80 FB 44 
1719834662,098: 80 FB 36 
1719834662,098: 80 FB 51 
1719834662,098: 80 FB 8C 
1719834662,128: 80 FB C1 
1719834662,128: 80 FB DA 
1719834662,128: 80 FB EA 
1719834662,128: 80 FC 16 
1719834662,128: 80 FC 5E 
1719834662,128: 80 FC 9B 
1719834662,128: 80 FC AD 
1719834662,128: 80 FC A3 
1719834662,128: 80 FC A7 
1719834662,128: 80 FC C9 
1719834662,128: 80 FC EE 
1719834662,128: 80 FC F3 
1719834662,128: 80 FC DA 
1719834662,128: 80 FC C4 
1719834662,128: 80 FC C9 
1719834662,158: 80 FC E6 
1719834662,158: 80 FD 06 
1719834662,158: 80 FD 1E 
1719834662,158: 80 FD 36 
1719834662,158: 80 FD 50 
1719834662,158: 80 FD 69 
1719834662,158: 80 FD 77 
1719834662,158: 80 FD 7F 
1719834662,158: 80 FD 89 
1719834662,158: 80 FD 93 
1719834662,158: 80 FD 94 
1719834662,158: 80 FD 7E 
1719834662,158: 80 FD 57 
1719834662,158: 80 FD 35 
1719834662,158: 80 FD 2D 
1719834662,189: 80 FD 38 
1719834662,189: 80 FD 40 
1719834662,189: 80 FD 34 
1719834662,189: 80 FD 20 
1719834662,189: 80 FD 14 
1719834662,189: 80 FD 0F 
1719834662,189: 80 FC FE 
1719834662,189: 80 FC DB 
1719834662,189: 80 FC BC 
1719834662,189: 80 FC B8 
1719834662,189: 80 FC C1 
1719834662,189: 80 FC AF 
1719834662,189: 80 FC 77 
1719834662,189: 80 FC 3D 
1719834662,189: 80 FC 30 
1719834662,189: 80 FC 50 
1719834662,189: 80 FC 6C 
1719834662,189: 80 FC 5C 
1719834662,189: 80 FC 2D 
1719834662,189: 80 FC 04 
1719834662,189: 80 FB F5 
1719834662,189: 80 FB F3 
1719834662,189: 80 FB F1 
1719834662,220: 80 FB F6 
1719834662,220: 80 FC 0D 
1719834662,220: 80 FC 28 
1719834662,220: 80 FC 32 
1719834662,220: 80 FC 2A 
1719834662,220: 80 FC 35 
1719834662,220: 80 FC 6E 
1719834662,250: 80 FC C4 
1719834662,250: 80 FD 04 
1719834662,250: 80 FD 13 
1719834662,250: 80 FD 0A 
1719834662,250: 80 FD 1A 
1719834662,250: 80 FD 52 
1719834662,250: 80 FD 96 
1719834662,250: 80 FD CA 
1719834662,250: 80 FD F3 
1719834662,250: 80 FE 2C 
1719834662,250: 80 FE 76 
1719834662,250: 80 FE B4 
1719834662,250: 80 FE D7 
1719834662,250: 80 FE F4 
1719834662,250: 80 FF 2D 
1719834662,280: 80 FF 7D 
1719834662,280: 80 FF BB 
1719834662,280: 80 FF CF 
1719834662,280: 80 FF CE 
1719834662,280: 80 FF DE 
1719834662,280: 80 00 07 
1719834662,280: 80 00 32 
1719834662,280: 80 00 4F 
1719834662,280: 80 00 62 
1719834662,280: 80 00 7A 
1719834662,280: 80 00 94 
1719834662,280: 80 00 A6 
1719834662,280: 80 00 B3 
1719834662,280: 80 00 C9 
1719834662,280: 80 00 E8 
1719834662,311: 80 00 FE 
1719834662,311: 80 01 05 
1719834662,311: 80 01 0C 
1719834662,311: 80 01 25 
1719834662,311: 80 01 4D 
1719834662,311: 80 01 6B 
1719834662,311: 80 01 71 
1719834662,311: 80 01 6C 
1719834662,311: 80 01 71 
1719834662,311: 80 01 85 
1719834662,311: 80 01 9D 
1719834662,311: 80 01 AB 
1719834662,311: 80 01 A6 
1719834662,311: 80 01 91 
1719834662,311: 80 01 78 
1719834662,311: 80 01 6E 
1719834662,311: 80 01 7C 
1719834662,311: 80 01 96 
1719834662,311: 80 01 A4 
1719834662,311: 80 01 9A 
1719834662,311: 80 01 89 
1719834662,311: 80 01 8A 
1719834662,311: 80 01 A1 
1719834662,342: 80 01 BB 
1719834662,342: 80 01 C5 
1719834662,342: 80 01 C1 
1719834662,342: 80 01 BC 
1719834662,342: 80 01 B9 
1719834662,342: 80 01 B0 
1719834662,342: 80 01 9C 
1719834662,342: 02 C8 
1719834662,342: 80 01 88 
1719834662,342: 80 01 82 
1719834662,342: 80 01 85 
1719834662,342: 80 01 7C 
1719834662,342: 80 01 5F 
1719834662,372: 80 01 41 
1719834662,372: 80 01 40 
1719834662,372: 80 01 59 
1719834662,372: 80 01 68 
1719834662,372: 80 01 52 
1719834662,372: 80 01 2B 
1719834662,372: 80 01 22 
1719834662,372: 80 01 42 
1719834662,372: 80 01 5F 
1719834662,372: 80 01 4C 
1719834662,372: 80 01 17 
1719834662,372: 80 00 FC 
1719834662,372: 80 01 1E 
1719834662,372: 80 01 56 
1719834662,372: 80 01 65 
1719834662,402: 80 01 3C 
1719834662,402: 80 01 0E 
1719834662,402: 80 01 04 
1719834662,402: 80 01 14 
1719834662,402: 80 01 15 
1719834662,402: 80 00 FB 
1719834662,402: 80 00 DE 
1719834662,402: 80 00 D7 
1719834662,402: 80 00 DB 
1719834662,402: 80 00 D6 
1719834662,402: 80 00 C6 
1719834662,402: 80 00 BA 
1719834662,402: 80 00 BB 
1719834662,402: 80 00 BF 
1719834662,402: 80 00 BC 
1719834662,432: 80 00 AF 
1719834662,432: 80 00 9F 
1719834662,432: 80 00 8E 
1719834662,432: 80 00 85 
1719834662,432: 80 00 89 
1719834662,432: 80 00 96 
1719834662,432: 80 00 9A 
1719834662,432: 80 00 8D 
1719834662,432: 80 00 83 
1719834662,432: 80 00 94 
1719834662,432: 80 00 B6 
1719834662,432: 80 00 BE 
1719834662,432: 80 00 95 
1719834662,432: 80 00 60 
1719834662,432: 80 00 5F 
1719834662,464: 80 00 9D 
1719834662,464: 80 00 D8 
1719834662,464: 80 00 C9 
1719834662,464: 80 00 7A 
1719834662,464: 80 00 42 
1719834662,464: 80 00 5B 
1719834662,464: 80 00 9F 
1719834662,464: 80 00 B9 
1719834662,464: 80 00 8D 
1719834662,464: 80 00 4F 
1719834662,464: 80 00 3C 
1719834662,464: 80 00 4D 
1719834662,464: 80 00 54 
1719834662,464: 80 00 43 
1719834662,464: 80 00 3C 
1719834662,495: 80 00 53 
1719834662,495: 80 00 68 
1719834662,495: 80 00 53 
1719834662,495: 80 00 29 
1719834662,495: 80 00 2E 
1719834662,495: 80 00 73 
1719834662,495: 80 00 B3 
1719834662,495: 80 00 9F 
1719834662,495: 80 00 45 
1719834662,495: 80 00 01 
1719834662,495: 80 00 12 
1719834662,495: 80 00 47 
1719834662,495: 80 00 47 
1719834662,495: 80 00 00 
1719834662,495: 80 FF BC 
1719834662,527: 80 FF C6 
1719834662,527: 80 00 14 
1719834662,527: 80 00 61 
1719834662,527: 80 00 86 
1719834662,527: 80 00 9C 
1719834662,527: 80 00 CA 
1719834662,527: 80 01 10 
1719834662,527: 80 01 46 
1719834662,527: 80 01 55 
1719834662,527: 80 01 48 
1719834662,527: 80 01 32 
1719834662,527: 80 01 1B 
1719834662,527: 80 00 FF 
1719834662,527: 80 00 E0 
1719834662,527: 80 00 CA 
1719834662,558: 80 00 C1 
1719834662,558: 80 00 BC 
1719834662,558: 80 00 B8 
1719834662,558: 80 00 B8 
1719834662,558: 80 00 C3 
1719834662,558: 80 00 D2 
1719834662,558: 80 00 D3 
1719834662,558: 80 00 C0 
1719834662,558: 80 00 A2 
1719834662,558: 80 00 8A 
1719834662,558: 80 00 7F 
1719834662,558: 80 00 79 
1719834662,558: 80 00 6D 
1719834662,558: 80 00 5E 
1719834662,558: 80 00 55 
1719834662,558: 80 00 59 
1719834662,558: 80 00 60 
1719834662,558: 80 00 5E 
1719834662,558: 80 00 4F 
1719834662,558: 80 00 3E 
1719834662,558: 80 00 3B 
1719834662,558: 80 00 47 
1719834662,558: 80 00 51 
1719834662,590: 80 00 49 
1719834662,590: 80 00 33 
1719834662,590: 80 00 28 
1719834662,590: 80 00 39 
1719834662,590: 80 00 58 
1719834662,590: 80 00 68 
1719834662,590: 80 00 5D 
1719834662,590: 80 00 4C 
1719834662,590: 80 00 52 
1719834662,590: 80 00 6B 
1719834662,590: 80 00 75 
1719834662,590: 80 00 5C 
1719834662,590: 80 00 3A 
1719834662,590: 80 00 36 
1719834662,590: 80 00 58 
1719834662,622: 80 00 78 
1719834662,622: 80 00 75 
1719834662,622: 80 00 5D 
1719834662,622: 80 00 5B 
1719834662,622: 80 00 7A 
1719834662,622: 80 00 A6 
1719834662,622: 80 00 BF 
1719834662,652: 80 00 C6 
1719834662,652: 80 00 D5 
1719834662,652: 80 00 F3 
1719834662,652: 80 01 08 
1719834662,652: 80 00 FC 
1719834662,652: 80 00 DC 
1719834662,652: 80 00 CB 
1719834662,652: 80 00 C5 
1719834662,652: 80 00 9B 
1719834662,652: 80 00 23 
1719834662,652: 80 FF 77 
1719834662,652: 80 FE F5 
1719834662,652: 80 FF 0A 
1719834662,652: 80 FF DF 
1719834662,652: 80 01 71 
1719834662,652: 80 03 EB 
1719834662,652: 80 07 BC 
1719834662,652: 80 0D 11 
1719834662,652: 80 13 3A 
1719834662,652: 80 18 E4 
1719834662,652: 86 02 96 
1719834662,652: 03 5B 
1719834662,652: 80 1D 2C 
1719834662,652: 80 20 63 
1719834662,652: 80 23 61 
1719834662,684: 80 25 F0 
1719834662,684: 80 26 51 
1719834662,684: 80 22 B8 
1719834662,684: 80 1B 64 
1719834662,684: 80 12 CF 
1719834662,684: 80 0B A5 
1719834662,684: 80 06 96 
1719834662,684: 80 02 65 
1719834662,684: 80 FD DA 
1719834662,684: 80 F9 55 
1719834662,684: 80 F6 5D 
1719834662,684: 80 F5 FA 
1719834662,684: 80 F7 B6 
1719834662,684: 80 FA 3C 
1719834662,684: 80 FC 62 
1719834662,715: 80 FD B2 
1719834662,715: 80 FE 40 
1719834662,715: 80 FE 4E 
1719834662,715: 80 FE 26 
1719834662,715: 80 FE 08 
1719834662,715: 80 FD FF 
1719834662,715: 80 FD E8 
1719834662,715: 80 FD 95 
1719834662,715: 80 FD 04 
1719834662,715: 80 FC 6C 
1719834662,715: 80 FC 04 
1719834662,715: 80 FB D7 
1719834662,715: 80 FB D1 
1719834662,715: 80 FB D8 
1719834662,715: 80 FB D4 
1719834662,746: 80 FB B6 
1719834662,746: 80 FB 81 
1719834662,746: 80 FB 4D 
1719834662,746: 80 FB 37 
1719834662,746: 80 FB 52 
1719834662,746: 80 FB 99 
1719834662,746: 80 FB F3 
1719834662,746: 80 FC 44 
1719834662,746: 80 FC 77 
1719834662,746: 80 FC 8A 
1719834662,746: 80 FC 82 
1719834662,746: 80 FC 6B 
1719834662,746: 80 FC 54 
1719834662,746: 80 FC 4E 
1719834662,746: 80 FC 68 
1719834662,778: 80 FC 9A 
1719834662,778: 80 FC D2 
1719834662,778: 80 FC FB 
1719834662,778: 80 FD 14 
1719834662,778: 80 FD 29 
1719834662,778: 80 FD 43 
1719834662,778: 80 FD 5C 
1719834662,778: 80 FD 69 
1719834662,778: 80 FD 6B 
1719834662,778: 80 FD 75 
1719834662,778: 80 FD 97 
1719834662,778: 80 FD C9 
1719834662,778: 80 FD F4 
1719834662,778: 80 FE 06 
1719834662,778: 80 FE 06 
1719834662,778: 80 FE 0B 
1719834662,778: 80 FE 23 
1719834662,778: 80 FE 45 
1719834662,778: 80 FE 64 
1719834662,778: 80 FE 7A 
1719834662,778: 80 FE 91 
1719834662,778: 80 FE B3 
1719834662,809: 80 FE DD 
1719834662,809: 80 FE FE 
1719834662,809: 80 FF 09 
1719834662,809: 80 FF 06 
1719834662,809: 80 FF 04 
1719834662,809: 80 FF 0D 
1719834662,809: 80 FF 18 
1719834662,809: 80 FF 17 
1719834662,809: 80 FF 0C 
1719834662,809: 80 FF 06 
1719834662,809: 80 FF 0F 
1719834662,809: 80 FF 21 
1719834662,809: 80 FF 2D 
1719834662,809: 80 FF 2F 
1719834662,809: 80 FF 2B 
1719834662,841: 80 FF 27 
1719834662,841: 80 FF 1E 
1719834662,841: 80 FF 0B 
1719834662,841: 80 FE F4 
1719834662,841: 80 FE E7 
1719834662,841: 80 FE E4 
1719834662,841: 80 FE D9 
1719834662,841: 80 FE B8 
1719834662,841: 80 FE 89 
1719834662,841: 80 FE 63 
1719834662,841: 80 FE 4E 
1719834662,841: 80 FE 3C 
1719834662,841: 80 FE 19 
1719834662,841: 80 FD E4 
1719834662,841: 80 FD AD 
1719834662,872: 80 FD 81 
1719834662,872: 80 FD 60 
1719834662,872: 80 FD 41 
1719834662,872: 80 FD 22 
1719834662,872: 80 FD 03 
1719834662,872: 80 FC E3 
1719834662,872: 80 FC C2 
1719834662,872: 80 FC A3 
1719834662,872: 80 FC 8E 
1719834662,872: 80 FC 85 
1719834662,872: 80 FC 80 
1719834662,872: 80 FC 73 
1719834662,872: 80 FC 5F 
1719834662,872: 80 FC 52 
1719834662,872: 80 FC 58 
1719834662,902: 80 FC 6E 
1719834662,902: 80 FC 8A 
1719834662,902: 80 FC A5 
1719834662,902: 80 FC BF 
1719834662,902: 80 FC DE 
1719834662,902: 80 FD 01 
1719834662,902: 80 FD 24 
1719834662,902: 80 FD 48 
1719834662,932: 80 FD 6C 
1719834662,932: 80 FD 92 
1719834662,932: 80 FD B7 
1719834662,932: 80 FD DA 
1719834662,932: 80 FD FD 
1719834662,932: 80 FE 23 
1719834662,932: 80 FE 4C 
1719834662,932: 80 FE 75 
1719834662,932: 80 FE 9D 
1719834662,932: 80 FE C7 
1719834662,932: 80 FE F4 
1719834662,932: 80 FF 23 
1719834662,932: 80 FF 4F 
1719834662,932: 80 FF 74 
1719834662,932: 80 FF 98 
1719834662,932: 80 FF BC 
1719834662,932: 80 FF E3 
1719834662,932: 80 00 09 
1719834662,932: 80 00 2B 
1719834662,932: 80 00 49 
1719834662,932: 80 00 5F 
1719834662,932: 80 00 6E 
1719834662,964: 80 00 7A 
1719834662,964: 80 00 8C 
1719834662,964: 80 00 A8 
1719834662,964: 80 00 C4 
1719834662,964: 80 00 D3 
1719834662,964: 80 00 D4 
1719834662,964: 80 00 D5 
1719834662,964: 80 00 E2 
1719834662,964: 80 00 FA 
1719834662,964: 80 01 10 
1719834662,964: 80 01 1A 
1719834662,964: 80 01 19 
1719834662,964: 80 01 19 
1719834662,964: 80 01 20 
1719834662,964: 80 01 2A 
1719834662,995: 80 01 30 
1719834662,995: 80 01 32 
1719834662,995: 80 01 34 
1719834662,995: 80 01 38 
1719834662,995: 80 01 3D 
1719834662,995: 80 01 3F 
1719834662,995: 80 01 3F 
1719834662,995: 80 01 40 
1719834662,995: 80 01 43 
1719834662,995: 80 01 45 
1719834662,995: 80 01 44 
1719834662,995: 80 01 41 
1719834662,995: 80 01 3F 
1719834662,995: 80 01 3F 
1719834662,995: 80 01 3F 
1719834663,026: 80 01 3F 
1719834663,026: 80 01 3F 
1719834663,026: 80 01 3F 
1719834663,026: 80 01 3F 
1719834663,026: 80 01 42 
1719834663,026: 80 01 47 
1719834663,026: 80 01 4F 
1719834663,026: 80 01 59 
1719834663,026: 80 01 61 
1719834663,026: 80 01 62 
1719834663,026: 80 01 61 
1719834663,026: 80 01 63 
1719834663,026: 80 01 68 
1719834663,026: 80 01 6B 
1719834663,026: 80 01 65 
1719834663,056: 80 01 58 
1719834663,056: 80 01 4C 
1719834663,056: 80 01 46 
1719834663,056: 80 01 43 
1719834663,056: 80 01 3D 
1719834663,056: 80 01 34 
1719834663,056: 80 01 2B 
1719834663,056: 80 01 25 
1719834663,056: 80 01 1F 
1719834663,056: 80 01 15 
1719834663,056: 80 01 05 
1719834663,056: 80 00 F7 
1719834663,056: 80 00 EC 
1719834663,056: 80 00 DD 
1719834663,056: 80 00 C6 
1719834663,088: 80 00 AB 
1719834663,088: 80 00 99 
1719834663,088: 80 00 9A 
1719834663,088: 80 00 A5 
1719834663,088: 80 00 A8 
1719834663,088: 80 00 9B 
1719834663,088: 80 00 8A 
1719834663,088: 80 00 86 
1719834663,088: 80 00 91 
1719834663,088: 80 00 9C 
1719834663,088: 80 00 96 
1719834663,088: 80 00 80 
1719834663,088: 80 00 6B 
1719834663,088: 80 00 63 
1719834663,088: 80 00 64 
1719834663,119: 80 00 66 
1719834663,119: 80 00 62 
1719834663,119: 80 00 5C 
1719834663,119: 80 00 58 
1719834663,119: 80 00 56 
1719834663,119: 80 00 55 
1719834663,119: 80 00 54 
1719834663,119: 80 00 51 
1719834663,119: 80 00 4F 
1719834663,119: 80 00 4D 
1719834663,119: 80 00 4B 
1719834663,119: 80 00 48 
1719834663,119: 80 00 43 
1719834663,119: 80 00 3F 
1719834663,119: 80 00 3F 
1719834663,119: 80 00 45 
1719834663,119: 80 00 4C 
1719834663,119: 80 00 4D 
1719834663,119: 80 00 4B 
1719834663,119: 80 00 4C 
1719834663,119: 80 00 51 
1719834663,119: 80 00 51 
1719834663,119: 80 00 49 
1719834663,151: 80 00 3C 
1719834663,151: 80 00 33 
1719834663,151: 80 00 30 
1719834663,151: 80 00 2A 
1719834663,151: 80 00 22 
1719834663,151: 80 00 1B 
1719834663,151: 80 00 17 
1719834663,151: 80 00 10 
1719834663,151: 80 00 02 
1719834663,151: 80 FF FB 
1719834663,151: 80 00 11 
1719834663,151: 80 00 49 
1719834663,151: 80 00 88 
1719834663,151: 80 00 B3 
1719834663,151: 80 00 C7 
1719834663,182: 80 00 DB 
1719834663,182: 80 01 00 
1719834663,182: 80 01 27 
1719834663,182: 80 01 37 
1719834663,182: 80 01 28 
1719834663,182: 80 01 09 
1719834663,182: 80 00 F2 
1719834663,182: 80 00 E4 
1719834663,182: 80 00 D7 
1719834663,182: 80 00 C7 
1719834663,182: 80 00 BB 
1719834663,182: 80 00 B9 
1719834663,182: 80 00 BC 
1719834663,182: 80 00 B7 
1719834663,182: 80 00 A9 
1719834663,214: 80 00 9C 
1719834663,214: 80 00 94 
1719834663,214: 80 00 8A 
1719834663,214: 80 00 72 
1719834663,214: 80 00 4D 
1719834663,214: 80 00 29 
1719834663,214: 80 00 0E 
1719834663,214: 80 FF FA 
1719834663,214: 80 FF E3 
1719834663,214: 80 FF CE 
1719834663,214: 80 FF C9 
1719834663,214: 80 FF DA 
1719834663,214: 80 FF F2 
1719834663,214: 80 FF FB 
1719834663,214: 80 FF F1 
1719834663,245: 80 FF E8 
1719834663,245: 80 FF F2 
1719834663,245: 80 00 09 
1719834663,245: 80 00 16 
1719834663,245: 80 00 0F 
1719834663,245: 80 00 00 
1719834663,245: 80 FF F9 
1719834663,245: 80 FF FB 
1719834663,245: 80 FF FD 
1719834663,245: 80 FF F8 
1719834663,245: 80 FF F4 
1719834663,245: 80 FF F8 
1719834663,245: 80 00 01 
1719834663,245: 80 00 05 
1719834663,245: 80 00 04 
1719834663,276: 80 00 07 
1719834663,276: 80 00 10 
1719834663,276: 80 00 13 
1719834663,276: 80 00 09 
1719834663,276: 80 FF F9 
1719834663,276: 80 FF F4 
1719834663,276: 80 FF FE 
1719834663,276: 80 00 13 
1719834663,276: 80 00 2E 
1719834663,276: 80 00 52 
1719834663,276: 80 00 8B 
1719834663,276: 80 00 D2 
1719834663,276: 80 01 05 
1719834663,276: 80 01 07 
1719834663,276: 80 00 E7 
1719834663,307: 80 00 D8 
1719834663,307: 80 00 E3 
1719834663,307: 80 00 C9 
1719834663,307: 80 00 3E 
1719834663,307: 80 FF 4B 
1719834663,307: 80 FE 67 
1719834663,307: 80 FE 28 
1719834663,307: 80 FE E3 
1719834663,307: 80 00 9B 
1719834663,307: 80 03 61 
1719834663,307: 80 07 85 
1719834663,307: 80 0D 45 
1719834663,307: 80 14 4C 
1719834663,307: 80 1B 9E 
1719834663,307: 86 02 88 
1719834663,307: 03 5D 
1719834663,307: 80 22 35 
1719834663,339: 80 27 B0 
1719834663,339: 80 2C 50 
1719834663,339: 80 30 08 
1719834663,339: 80 31 BE 
1719834663,339: 80 2F B9 
1719834663,339: 80 29 3C 
1719834663,339: 80 1F A4 
1719834663,339: 80 15 C5 
1719834663,339: 80 0D CA 
1719834663,339: 80 07 C0 
1719834663,339: 80 02 3D 
1719834663,339: 80 FC 70 
1719834663,339: 80 F7 56 
1719834663,339: 80 F4 CD 
1719834663,339: 80 F5 96 
1719834663,339: 80 F8 85 
1719834663,339: 80 FB 85 
1719834663,339: 80 FD 33 
1719834663,339: 80 FD 88 
1719834663,339: 02 C8 
1719834663,370: 80 FD 38 
1719834663,370: 80 FC CE 
1719834663,370: 80 FC 5F 
1719834663,370: 80 FB D4 
1719834663,370: 80 FB 26 
1719834663,370: 80 FA 60 
1719834663,370: 80 F9 91 
1719834663,370: 80 F8 D6 
1719834663,370: 80 F8 5E 
1719834663,370: 80 F8 44 
1719834663,370: 80 F8 73 
1719834663,370: 80 F8 C2 
1719834663,370: 80 F9 06 
1719834663,370: 80 F9 21 
1719834663,370: 80 F9 05 
1719834663,401: 80 F8 BD 
1719834663,401: 80 F8 6E 
1719834663,401: 80 F8 4F 
1719834663,401: 80 F8 80 
1719834663,401: 80 F8 F4 
1719834663,401: 80 F9 73 
1719834663,401: 80 F9 CD 
1719834663,401: 80 F9 F0 
1719834663,401: 80 F9 EB 
1719834663,401: 80 F9 D0 
1719834663,401: 80 F9 AD 
1719834663,401: 80 F9 8F 
1719834663,401: 80 F9 88 
1719834663,401: 80 F9 AA 
1719834663,401: 80 F9 EF 
1719834663,432: 80 FA 3E 
1719834663,432: 80 FA 7D 
1719834663,432: 80 FA 9F 
1719834663,432: 80 FA A7 
1719834663,432: 80 FA A1 
1719834663,432: 80 FA 9D 
1719834663,432: 80 FA AA 
1719834663,432: 80 FA CC 
1719834663,432: 80 FA FC 
1719834663,432: 80 FB 27 
1719834663,432: 80 FB 43 
1719834663,432: 80 FB 54 
1719834663,432: 80 FB 65 
1719834663,432: 80 FB 7B 
1719834663,432: 80 FB 91 
1719834663,463: 80 FB A2 
1719834663,463: 80 FB B0 
1719834663,463: 80 FB C1 
1719834663,463: 80 FB D6 
1719834663,463: 80 FB EE 
1719834663,463: 80 FC 07 
1719834663,463: 80 FC 20 
1719834663,463: 80 FC 35 
1719834663,463: 80 FC 44 
1719834663,463: 80 FC 4E 
1719834663,463: 80 FC 55 
1719834663,463: 80 FC 59 
1719834663,463: 80 FC 58 
1719834663,463: 80 FC 54 
1719834663,463: 80 FC 55 
1719834663,463: 80 FC 60 
1719834663,463: 80 FC 6F 
1719834663,463: 80 FC 74 
1719834663,463: 80 FC 69 
1719834663,463: 80 FC 59 
1719834663,463: 80 FC 52 
1719834663,463: 80 FC 59 
1719834663,463: 80 FC 65 
1719834663,494: 80 FC 69 
1719834663,494: 80 FC 60 
1719834663,494: 80 FC 50 
1719834663,494: 80 FC 42 
1719834663,494: 80 FC 3A 
1719834663,494: 80 FC 33 
1719834663,494: 80 FC 27 
1719834663,525: 80 FC 13 
1719834663,525: 80 FB F9 
1719834663,525: 80 FB DC 
1719834663,525: 80 FB C1 
1719834663,525: 80 FB AB 
1719834663,525: 80 FB 9B 
1719834663,525: 80 FB 92 
1719834663,525: 80 FB 90 
1719834663,525: 80 FB 8D 
1719834663,525: 80 FB 83 
1719834663,525: 80 FB 74 
1719834663,525: 80 FB 67 
1719834663,525: 80 FB 66 
1719834663,525: 80 FB 6C 
1719834663,525: 80 FB 6E 
1719834663,556: 80 FB 63 
1719834663,556: 80 FB 54 
1719834663,556: 80 FB 4F 
1719834663,556: 80 FB 58 
1719834663,556: 80 FB 67 
1719834663,556: 80 FB 71 
1719834663,556: 80 FB 7E 
1719834663,556: 80 FB 9C 
1719834663,556: 80 FB D2 
1719834663,556: 80 FC 10 
1719834663,556: 80 FC 41 
1719834663,556: 80 FC 62 
1719834663,556: 80 FC 84 
1719834663,556: 80 FC B6 
1719834663,556: 80 FC F6 
1719834663,556: 80 FD 31 
1719834663,556: 80 FD 5C 
1719834663,556: 80 FD 80 
1719834663,556: 80 FD AA 
1719834663,556: 80 FD DC 
1719834663,556: 80 FE 10 
1719834663,556: 80 FE 40 
1719834663,556: 80 FE 6F 
1719834663,588: 80 FE A2 
1719834663,588: 80 FE D5 
1719834663,588: 80 FE FF 
1719834663,588: 80 FF 21 
1719834663,588: 80 FF 44 
1719834663,588: 80 FF 6E 
1719834663,588: 80 FF 98 
1719834663,588: 80 FF B6 
1719834663,588: 80 FF C9 
1719834663,588: 80 FF DC 
1719834663,588: 80 FF FA 
1719834663,588: 80 00 1C 
1719834663,588: 80 00 32 
1719834663,588: 80 00 34 
1719834663,588: 80 00 2F 
1719834663,619: 80 00 37 
1719834663,619: 80 00 4F 
1719834663,619: 80 00 65 
1719834663,619: 80 00 66 
1719834663,619: 80 00 56 
1719834663,619: 80 00 4C 
1719834663,619: 80 00 5B 
1719834663,619: 80 00 79 
1719834663,619: 80 00 8B 
1719834663,619: 80 00 88 
1719834663,619: 80 00 7B 
1719834663,619: 80 00 78 
1719834663,619: 80 00 84 
1719834663,619: 80 00 91 
1719834663,619: 80 00 93 
1719834663,650: 80 00 8C 
1719834663,650: 80 00 87 
1719834663,650: 80 00 87 
1719834663,650: 80 00 87 
1719834663,650: 80 00 80 
1719834663,650: 80 00 74 
1719834663,650: 80 00 6B 
1719834663,682: 80 00 67 
1719834663,682: 80 00 65 
1719834663,682: 80 00 5F 
1719834663,682: 80 00 56 
1719834663,682: 80 00 4F 
1719834663,682: 80 00 4D 
1719834663,682: 80 00 4D 
1719834663,682: 80 00 4E 
1719834663,682: 80 00 4C 
1719834663,682: 80 00 4A 
1719834663,682: 80 00 47 
1719834663,682: 80 00 3E 
1719834663,682: 80 00 2F 
1719834663,682: 80 00 1E 
1719834663,682: 80 00 15 
1719834663,682: 80 00 18 
1719834663,682: 80 00 1F 
1719834663,682: 80 00 20 
1719834663,682: 80 00 16 
1719834663,682: 80 00 0A 
1719834663,682: 80 00 03 
1719834663,682: 80 00 04 
1719834663,682: 80 00 04 
1719834663,712: 80 FF F9 
1719834663,712: 80 FF E2 
1719834663,712: 80 FF C8 
1719834663,712: 80 FF B4 
1719834663,712: 80 FF AC 
1719834663,712: 80 FF AB 
1719834663,712: 80 FF A7 
1719834663,712: 80 FF 9C 
1719834663,712: 80 FF 8E 
1719834663,712: 80 FF 84 
1719834663,712: 80 FF 84 
1719834663,712: 80 FF 87 
1719834663,712: 80 FF 85 
1719834663,712: 80 FF 79 
1719834663,712: 80 FF 6B 
1719834663,743: 80 FF 65 
1719834663,743: 80 FF 67 
1719834663,743: 80 FF 68 
1719834663,743: 80 FF 60 
1719834663,743: 80 FF 54 
1719834663,743: 80 FF 4E 
1719834663,743: 80 FF 51 
1719834663,743: 80 FF 56 
1719834663,743: 80 FF 51 
1719834663,743: 80 FF 42 
1719834663,743: 80 FF 35 
1719834663,743: 80 FF 2C 
1719834663,743: 80 FF 22 
1719834663,743: 80 FF 11 
1719834663,743: 80 FF 00 
1719834663,774: 80 FE FB 
1719834663,774: 80 FF 03 
1719834663,774: 80 FF 09 
1719834663,774: 80 FE FF 
1719834663,774: 80 FE EA 
1719834663,774: 80 FE DB 
1719834663,774: 80 FE DE 
1719834663,774: 80 FE E8 
1719834663,774: 80 FE EA 
1719834663,774: 80 FE DE 
1719834663,774: 80 FE D1 
1719834663,774: 80 FE CE 
1719834663,774: 80 FE D7 
1719834663,774: 80 FE E5 
1719834663,774: 80 FE EF 
1719834663,805: 80 FE F4 
1719834663,805: 80 FE F6 
1719834663,805: 80 FE F9 
1719834663,805: 80 FE FC 
1719834663,805: 80 FE FF 
1719834663,805: 80 FE FE 
1719834663,805: 80 FE F8 
1719834663,805: 80 FE F2 
1719834663,805: 80 FE F0 
1719834663,805: 80 FE F0 
1719834663,805: 80 FE ED 
1719834663,805: 80 FE E0 
1719834663,805: 80 FE CF 
1719834663,805: 80 FE C2 
1719834663,805: 80 FE BF 
1719834663,805: 80 FE C1 
1719834663,805: 80 FE C1 
1719834663,805: 80 FE BB 
1719834663,805: 80 FE B8 
1719834663,805: 80 FE C1 
1719834663,805: 80 FE DA 
1719834663,805: 80 FE FF 
1719834663,837: 80 FF 28 
1719834663,837: 80 FF 51 
1719834663,837: 80 FF 76 
1719834663,837: 80 FF 99 
1719834663,837: 80 FF B6 
1719834663,837: 80 FF CB 
1719834663,837: 80 FF D6 
1719834663,837: 80 FF D7 
1719834663,837: 80 FF CE 
1719834663,837: 80 FF BA 
1719834663,837: 80 FF A0 
1719834663,837: 80 FF 85 
1719834663,837: 80 FF 74 
1719834663,837: 80 FF 6D 
1719834663,837: 80 FF 69 
1719834663,867: 80 FF 63 
1719834663,867: 80 FF 5B 
1719834663,867: 80 FF 55 
1719834663,867: 80 FF 50 
1719834663,867: 80 FF 47 
1719834663,867: 80 FF 36 
1719834663,867: 80 FF 1E 
1719834663,867: 80 FF 04 
1719834663,898: 80 FE E8 
1719834663,898: 80 FE CD 
1719834663,898: 80 FE B9 
1719834663,898: 80 FE B6 
1719834663,898: 80 FE C1 
1719834663,898: 80 FE CD 
1719834663,898: 80 FE CF 
1719834663,898: 80 FE CB 
1719834663,898: 80 FE CE 
1719834663,898: 80 FE DF 
1719834663,898: 80 FE F3 
1719834663,898: 80 FE FB 
1719834663,898: 80 FE EF 
1719834663,898: 80 FE DA 
1719834663,898: 80 FE CD 
1719834663,930: 80 FE CC 
1719834663,930: 80 FE D4 
1719834663,930: 80 FE DD 
1719834663,930: 80 FE E2 
1719834663,930: 80 FE E3 
1719834663,930: 80 FE E3 
1719834663,930: 80 FE E5 
1719834663,930: 80 FE E8 
1719834663,930: 80 FE EC 
1719834663,930: 80 FE F0 
1719834663,930: 80 FE EF 
1719834663,930: 80 FE E6 
1719834663,930: 80 FE D6 
1719834663,930: 80 FE CA 
1719834663,930: 80 FE CC 
1719834663,930: 80 FE DD 
1719834663,930: 80 FE F5 
1719834663,930: 80 FF 0E 
1719834663,930: 80 FF 2A 
1719834663,930: 80 FF 57 
1719834663,930: 80 FF 93 
1719834663,930: 80 FF C1 
1719834663,961: 80 FF BD 
1719834663,961: 80 FF 8E 
1719834663,961: 80 FF 68 
1719834663,961: 80 FF 61 
1719834663,961: 80 FF 46 
1719834663,961: 80 FE BF 
1719834663,961: 80 FD C4 
1719834663,961: 80 FC C5 
1719834663,961: 80 FC 5F 
1719834663,961: 80 FC F3 
1719834663,961: 80 FE 8B 
1719834663,961: 80 01 2D 
1719834663,961: 80 05 28 
1719834663,961: 80 0A D2 
1719834663,961: 80 12 01 
1719834663,993: 80 19 D4 
1719834663,993: 86 02 90 
1719834663,993: 03 5B 
1719834663,993: 80 21 27 
1719834663,993: 80 27 4B 
1719834663,993: 80 2C 36 
1719834663,993: 80 2F E7 
1719834663,993: 80 31 A8 
1719834663,993: 80 30 20 
1719834663,993: 80 2A 6E 
1719834663,993: 80 21 58 
1719834663,993: 80 17 2D 
1719834663,993: 80 0E 42 
1719834663,993: 80 07 57 
1719834663,993: 80 01 98 
1719834663,993: 80 FC 18 
1719834663,993: 80 F7 35 
1719834664,025: 80 F4 5F 
1719834664,025: 80 F4 88 
1719834664,025: 80 F7 08 
1719834664,025: 80 FA 15 
1719834664,025: 80 FC 23 
1719834664,025: 80 FC CE 
1719834664,025: 80 FC 9B 
1719834664,025: 80 FC 21 
1719834664,025: 80 FB 95 
1719834664,025: 80 FA ED 
1719834664,025: 80 FA 23 
1719834664,025: 80 F9 48 
1719834664,025: 80 F8 6F 
1719834664,025: 80 F7 B4 
1719834664,025: 80 F7 39 
1719834664,056: 80 F7 16 
1719834664,056: 80 F7 3B 
1719834664,056: 80 F7 82 
1719834664,056: 80 F7 C3 
1719834664,056: 80 F7 E3 
1719834664,056: 80 F7 DC 
1719834664,056: 80 F7 B9 
1719834664,056: 80 F7 90 
1719834664,056: 80 F7 80 
1719834664,056: 80 F7 A4 
1719834664,056: 80 F7 FA 
1719834664,056: 80 F8 68 
1719834664,056: 80 F8 C6 
1719834664,056: 80 F8 F8 
1719834664,056: 80 F8 FB 
1719834664,086: 80 F8 E2 
1719834664,086: 80 F8 C3 
1719834664,086: 80 F8 AF 
1719834664,086: 80 F8 B3 
1719834664,086: 80 F8 DA 
1719834664,086: 80 F9 20 
1719834664,086: 80 F9 70 
1719834664,086: 80 F9 AE 
1719834664,086: 80 F9 C8 
1719834664,086: 80 F9 C8 
1719834664,086: 80 F9 C7 
1719834664,086: 80 F9 D6 
1719834664,086: 80 F9 F4 
1719834664,086: 80 FA 16 
1719834664,086: 80 FA 36 
1719834664,117: 80 FA 53 
1719834664,117: 80 FA 70 
1719834664,117: 80 FA 8D 
1719834664,117: 80 FA A8 
1719834664,117: 80 FA C1 
1719834664,117: 80 FA D9 
1719834664,117: 80 FA EB 
1719834664,117: 80 FA FA 
1719834664,117: 80 FB 09 
1719834664,117: 80 FB 20 
1719834664,117: 80 FB 3D 
1719834664,117: 80 FB 57 
1719834664,117: 80 FB 68 
1719834664,117: 80 FB 70 
1719834664,117: 80 FB 7A 
1719834664,117: 80 FB 8A 
1719834664,117: 80 FB 9A 
1719834664,117: 80 FB A4 
1719834664,117: 80 FB AA 
1719834664,117: 80 FB AF 
1719834664,117: 80 FB B6 
1719834664,117: 80 FB BE 
1719834664,117: 80 FB C5 
1719834664,148: 80 FB CC 
1719834664,148: 80 FB D1 
1719834664,148: 80 FB D0 
1719834664,148: 80 FB CB 
1719834664,148: 80 FB CA 
1719834664,148: 80 FB D6 
1719834664,148: 80 FB EA 
1719834664,148: 80 FB F6 
1719834664,148: 80 FB ED 
1719834664,148: 80 FB D7 
1719834664,148: 80 FB C6 
1719834664,148: 80 FB C6 
1719834664,148: 80 FB CC 
1719834664,148: 80 FB C8 
1719834664,148: 80 FB B7 
1719834664,180: 80 FB A2 
1719834664,180: 80 FB 93 
1719834664,180: 80 FB 8B 
1719834664,180: 80 FB 85 
1719834664,180: 80 FB 7E 
1719834664,180: 80 FB 77 
1719834664,180: 80 FB 72 
1719834664,180: 80 FB 6F 
1719834664,180: 80 FB 6A 
1719834664,180: 80 FB 63 
1719834664,180: 80 FB 5C 
1719834664,180: 80 FB 57 
1719834664,180: 80 FB 55 
1719834664,180: 80 FB 54 
1719834664,180: 80 FB 53 
1719834664,211: 80 FB 51 
1719834664,211: 80 FB 53 
1719834664,211: 80 FB 5E 
1719834664,211: 80 FB 73 
1719834664,211: 80 FB 8E 
1719834664,211: 80 FB A9 
1719834664,211: 80 FB C9 
1719834664,211: 80 FB F4 
1719834664,211: 80 FC 2E 
1719834664,211: 80 FC 69 
1719834664,211: 80 FC 9B 
1719834664,211: 80 FC C5 
1719834664,211: 80 FC F8 
1719834664,211: 80 FD 3D 
1719834664,211: 80 FD 8B 
1719834664,242: 80 FD CE 
1719834664,242: 80 FD FB 
1719834664,242: 80 FE 1C 
1719834664,242: 80 FE 47 
1719834664,242: 80 FE 83 
1719834664,242: 80 FE C3 
1719834664,242: 80 FE F5 
1719834664,242: 80 FF 12 
1719834664,242: 80 FF 28 
1719834664,242: 80 FF 47 
1719834664,242: 80 FF 6F 
1719834664,242: 80 FF 97 
1719834664,242: 80 FF B4 
1719834664,242: 80 FF C8 
1719834664,242: 80 FF DD 
1719834664,273: 80 FF F8 
1719834664,273: 80 00 12 
1719834664,273: 80 00 23 
1719834664,273: 80 00 2C 
1719834664,273: 80 00 36 
1719834664,273: 80 00 47 
1719834664,273: 80 00 56 
1719834664,273: 80 00 5A 
1719834664,273: 80 00 57 
1719834664,273: 80 00 5A 
1719834664,273: 80 00 6C 
1719834664,273: 80 00 87 
1719834664,273: 80 00 97 
1719834664,273: 80 00 96 
1719834664,273: 80 00 8F 
1719834664,304: 80 00 92 
1719834664,304: 80 00 A1 
1719834664,304: 80 00 B1 
1719834664,304: 80 00 B3 
1719834664,304: 80 00 A8 
1719834664,304: 80 00 9B 
1719834664,304: 80 00 97 
1719834664,304: 80 00 9D 
1719834664,304: 80 00 A4 
1719834664,304: 80 00 A7 
1719834664,304: 80 00 A5 
1719834664,304: 80 00 A0 
1719834664,304: 80 00 9D 
1719834664,304: 80 00 9B 
1719834664,304: 80 00 9C 
1719834664,336: 80 00 9E 
1719834664,336: 80 00 9F 
1719834664,336: 80 00 9F 
1719834664,336: 80 00 9F 
1719834664,336: 80 00 9B 
1719834664,336: 80 00 94 
1719834664,336: 80 00 8C 
1719834664,336: 80 00 83 
1719834664,336: 80 00 7B 
1719834664,336: 80 00 72 
1719834664,336: 80 00 69 
1719834664,336: 80 00 5F 
1719834664,336: 80 00 54 
1719834664,336: 80 00 47 
1719834664,336: 80 00 3A 
1719834664,367: 80 00 35 
1719834664,367: 80 00 3C 
1719834664,367: 80 00 49 
1719834664,367: 80 00 4F 
1719834664,367: 80 00 48 
1719834664,367: 80 00 3D 
1719834664,367: 80 00 3D 
1719834664,367: 80 00 4A 
1719834664,367: 80 00 55 
1719834664,367: 02 C8 
1719834664,367: 80 00 50 
1719834664,367: 80 00 3F 
1719834664,367: 80 00 39 
1719834664,367: 80 00 46 
1719834664,367: 80 00 5D 
1719834664,367: 80 00 67 
1719834664,367: 80 00 5F 
1719834664,367: 80 00 51 
1719834664,367: 80 00 4E 
1719834664,367: 80 00 58 
1719834664,367: 80 00 60 
1719834664,398: 80 00 5A 
1719834664,398: 80 00 46 
1719834664,398: 80 00 2F 
1719834664,398: 80 00 20 
1719834664,398: 80 00 1B 
1719834664,398: 80 00 1C 
1719834664,398: 80 00 1D 
1719834664,398: 80 00 19 
1719834664,398: 80 00 13 
1719834664,398: 80 00 0E 
1719834664,398: 80 00 0D 
1719834664,398: 80 00 13 
1719834664,398: 80 00 1D 
1719834664,398: 80 00 24 
1719834664,398: 80 00 21 
1719834664,430: 80 00 13 
1719834664,430: 80 FF FF 
1719834664,430: 80 FF F2 
1719834664,430: 80 FF F5 
1719834664,430: 80 00 05 
1719834664,430: 80 00 12 
1719834664,430: 80 00 12 
1719834664,430: 80 00 0A 
1719834664,430: 80 00 05 
1719834664,430: 80 00 0C 
1719834664,430: 80 00 19 
1719834664,430: 80 00 21 
1719834664,430: 80 00 1C 
1719834664,430: 80 00 11 
1719834664,430: 80 00 08 
1719834664,460: 80 00 05 
1719834664,460: 80 00 04 
1719834664,460: 80 00 04 
1719834664,460: 80 00 05 
1719834664,460: 80 00 09 
1719834664,460: 80 00 0C 
1719834664,460: 80 00 0D 
1719834664,460: 80 00 0A 
1719834664,460: 80 00 05 
1719834664,460: 80 00 00 
1719834664,460: 80 FF FB 
1719834664,460: 80 FF F4 
1719834664,460: 80 FF EB 
1719834664,460: 80 FF E0 
1719834664,460: 80 FF D4 
1719834664,491: 80 FF CC 
1719834664,491: 80 FF CC 
1719834664,491: 80 FF D4 
1719834664,491: 80 FF DD 
1719834664,491: 80 FF E4 
1719834664,491: 80 FF E7 
1719834664,491: 80 FF EE 
1719834664,491: 80 FF F9 
1719834664,491: 80 00 03 
1719834664,491: 80 00 04 
1719834664,491: 80 FF FE 
1719834664,491: 80 FF FC 
1719834664,491: 80 00 03 
1719834664,491: 80 00 0C 
1719834664,491: 80 00 0B 
1719834664,522: 80 FF FD 
1719834664,522: 80 FF F1 
1719834664,522: 80 FF F0 
1719834664,522: 80 FF F7 
1719834664,522: 80 FF FA 
1719834664,522: 80 FF F4 
1719834664,522: 80 FF EC 
1719834664,522: 80 FF EB 
1719834664,522: 80 FF EF 
1719834664,522: 80 FF EF 
1719834664,522: 80 FF E9 
1719834664,522: 80 FF E1 
1719834664,522: 80 FF DC 
1719834664,522: 80 FF D6 
1719834664,522: 80 FF CE 
1719834664,553: 80 FF C6 
1719834664,553: 80 FF C8 
1719834664,553: 80 FF D4 
1719834664,553: 80 FF E7 
1719834664,553: 80 FF F8 
1719834664,553: 80 00 0C 
1719834664,553: 80 00 2B 
1719834664,553: 80 00 57 
1719834664,553: 80 00 83 
1719834664,553: 80 00 A0 
1719834664,553: 80 00 AC 
1719834664,553: 80 00 B1 
1719834664,553: 80 00 BA 
1719834664,553: 80 00 BF 
1719834664,553: 80 00 B3 
1719834664,583: 80 00 94 
1719834664,583: 80 00 77 
1719834664,583: 80 00 6B 
1719834664,583: 80 00 6C 
1719834664,583: 80 00 65 
1719834664,583: 80 00 4C 
1719834664,583: 80 00 34 
1719834664,583: 80 00 2E 
1719834664,583: 80 00 37 
1719834664,583: 80 00 36 
1719834664,583: 80 00 1A 
1719834664,583: 80 FF EC 
1719834664,583: 80 FF C6 
1719834664,583: 80 FF B3 
1719834664,583: 80 FF AD 
1719834664,614: 80 FF A5 
1719834664,614: 80 FF 97 
1719834664,614: 80 FF 8A 
1719834664,614: 80 FF 85 
1719834664,614: 80 FF 8B 
1719834664,614: 80 FF 99 
1719834664,614: 80 FF AA 
1719834664,614: 80 FF B7 
1719834664,614: 80 FF BA 
1719834664,614: 80 FF B6 
1719834664,614: 80 FF B5 
1719834664,614: 80 FF BB 
1719834664,614: 80 FF C4 
1719834664,614: 80 FF CA 
1719834664,614: 80 FF CC 
1719834664,614: 80 FF D1 
1719834664,614: 80 FF DC 
1719834664,614: 80 FF E7 
1719834664,614: 80 FF E9 
1719834664,614: 80 FF E1 
1719834664,614: 80 FF D6 
1719834664,614: 80 FF D3 
1719834664,645: 80 FF D6 
1719834664,645: 80 FF D6 
1719834664,645: 80 FF CA 
1719834664,645: 80 FF B7 
1719834664,645: 80 FF AB 
1719834664,645: 80 FF B3 
1719834664,645: 80 FF CE 
1719834664,645: 80 FF F0 
1719834664,645: 80 00 10 
1719834664,645: 80 00 36 
1719834664,645: 80 00 7A 
1719834664,645: 80 00 D5 
1719834664,645: 80 01 18 
1719834664,645: 80 01 1F 
1719834664,645: 80 00 FA 
1719834664,677: 80 00 DA 
1719834664,677: 80 00 C5 
1719834664,677: 80 00 70 
1719834664,677: 80 FF 99 
1719834664,677: 80 FE 69 
1719834664,677: 80 FD 78 
1719834664,677: 80 FD 68 
1719834664,677: 80 FE 87 
1719834664,707: 80 00 E8 
1719834664,707: 80 04 A7 
1719834664,707: 80 09 FA 
1719834664,707: 80 10 DE 
1719834664,707: 80 18 CE 
1719834664,707: 86 02 C3 
1719834664,707: 03 55 
1719834664,707: 80 20 DC 
1719834664,707: 80 28 20 
1719834664,707: 80 2E 15 
1719834664,707: 80 32 82 
1719834664,707: 80 35 08 
1719834664,707: 80 34 D3 
1719834664,707: 80 30 F7 
1719834664,707: 80 29 5D 
1719834664,707: 80 1F 62 
1719834664,707: 80 15 55 
1719834664,707: 80 0C F8 
1719834664,707: 80 06 6E 
1719834664,707: 80 00 BE 
1719834664,707: 80 FB 66 
1719834664,707: 80 F7 43 
1719834664,707: 80 F5 B1 
1719834664,707: 80 F6 FB 
1719834664,737: 80 F9 C7 
1719834664,737: 80 FC 2D 
1719834664,737: 80 FD 29 
1719834664,737: 80 FD 05 
1719834664,737: 80 FC 89 
1719834664,737: 80 FC 13 
1719834664,737: 80 FB 7E 
1719834664,737: 80 FA A4 
1719834664,737: 80 F9 A0 
1719834664,737: 80 F8 AE 
1719834664,737: 80 F7 F4 
1719834664,737: 80 F7 75 
1719834664,737: 80 F7 33 
1719834664,737: 80 F7 2C 
1719834664,737: 80 F7 57 
1719834664,768: 80 F7 9A 
1719834664,768: 80 F7 D2 
1719834664,768: 80 F7 E8 
1719834664,768: 80 F7 D8 
1719834664,768: 80 F7 B8 
1719834664,768: 80 F7 A2 
1719834664,768: 80 F7 AF 
1719834664,768: 80 F7 E7 
1719834664,768: 80 F8 42 
1719834664,768: 80 F8 AC 
1719834664,768: 80 F9 07 
1719834664,768: 80 F9 3A 
1719834664,768: 80 F9 3E 
1719834664,768: 80 F9 25 
1719834664,768: 80 F9 0E 
1719834664,799: 80 F9 10 
1719834664,799: 80 F9 2F 
1719834664,799: 80 F9 64 
1719834664,799: 80 F9 A0 
1719834664,799: 80 F9 D9 
1719834664,799: 80 FA 04 
1719834664,799: 80 FA 1A 
1719834664,799: 80 FA 16 
1719834664,799: 80 FA 02 
1719834664,799: 80 F9 F2 
1719834664,799: 80 F9 FC 
1719834664,799: 80 FA 22 
1719834664,799: 80 FA 54 
1719834664,799: 80 FA 7B 
1719834664,799: 80 FA 91 
1719834664,830: 80 FA A1 
1719834664,830: 80 FA BD 
1719834664,830: 80 FA E1 
1719834664,830: 80 FA FF 
1719834664,830: 80 FB 09 
1719834664,830: 80 FB 05 
1719834664,830: 80 FB 07 
1719834664,830: 80 FB 19 
1719834664,830: 80 FB 34 
1719834664,830: 80 FB 47 
1719834664,830: 80 FB 4D 
1719834664,830: 80 FB 4F 
1719834664,830: 80 FB 59 
1719834664,830: 80 FB 6B 
1719834664,830: 80 FB 7C 
1719834664,860: 80 FB 86 
1719834664,860: 80 FB 89 
1719834664,860: 80 FB 8C 
1719834664,860: 80 FB 92 
1719834664,860: 80 FB 9A 
1719834664,860: 80 FB A2 
1719834664,860: 80 FB A3 
1719834664,860: 80 FB 9B 
1719834664,860: 80 FB 8E 
1719834664,860: 80 FB 88 
1719834664,860: 80 FB 92 
1719834664,860: 80 FB A9 
1719834664,860: 80 FB BB 
1719834664,860: 80 FB BB 
1719834664,860: 80 FB AE 
1719834664,860: 80 FB A8 
1719834664,860: 80 FB B4 
1719834664,860: 80 FB CB 
1719834664,860: 80 FB DA 
1719834664,860: 80 FB D9 
1719834664,860: 80 FB D0 
1719834664,860: 80 FB CB 
1719834664,860: 80 FB CC 
1719834664,891: 80 FB CC 
1719834664,891: 80 FB C9 
1719834664,891: 80 FB C7 
1719834664,891: 80 FB C9 
1719834664,891: 80 FB CA 
1719834664,891: 80 FB C4 
1719834664,891: 80 FB B4 
1719834664,923: 80 FB A5 
1719834664,923: 80 FB A0 
1719834664,923: 80 FB A5 
1719834664,923: 80 FB AC 
1719834664,923: 80 FB AF 
1719834664,923: 80 FB B0 
1719834664,923: 80 FB B9 
1719834664,923: 80 FB D1 
1719834664,923: 80 FB F6 
1719834664,923: 80 FC 21 
1719834664,923: 80 FC 48 
1719834664,923: 80 FC 6A 
1719834664,923: 80 FC 8E 
1719834664,923: 80 FC BD 
1719834664,923: 80 FC F5 
1719834664,954: 80 FD 2D 
1719834664,954: 80 FD 5E 
1719834664,954: 80 FD 8C 
1719834664,954: 80 FD BC 
1719834664,954: 80 FD F5 
1719834664,954: 80 FE 32 
1719834664,954: 80 FE 70 
1719834664,954: 80 FE AB 
1719834664,954: 80 FE E0 
1719834664,954: 80 FF 0E 
1719834664,954: 80 FF 3C 
1719834664,954: 80 FF 70 
1719834664,954: 80 FF AE 
1719834664,954: 80 FF EC 
1719834664,954: 80 00 19 
1719834664,954: 80 00 34 
1719834664,954: 80 00 4A 
1719834664,954: 80 00 6E 
1719834664,954: 80 00 9D 
1719834664,954: 80 00 C7 
1719834664,954: 80 00 E0 
1719834664,954: 80 00 EC 
1719834664,954: 80 00 FF 
1719834664,984: 80 01 1E 
1719834664,984: 80 01 3D 
1719834664,984: 80 01 51 
1719834664,984: 80 01 5B 
1719834664,984: 80 01 68 
1719834664,984: 80 01 7C 
1719834664,984: 80 01 91 
1719834664,984: 80 01 9E 
1719834664,984: 80 01 A6 
1719834664,984: 80 01 AE 
1719834664,984: 80 01 BA 
1719834664,984: 80 01 C4 
1719834664,984: 80 01 C9 
1719834664,984: 80 01 CD 
1719834664,984: 80 01 D1 
1719834665,015: 80 01 D0 
1719834665,015: 80 01 C4 
1719834665,015: 80 01 B5 
1719834665,015: 80 01 B0 
1719834665,015: 80 01 BA 
1719834665,015: 80 01 C7 
1719834665,015: 80 01 C7 
1719834665,015: 80 01 BA 
1719834665,015: 80 01 B0 
1719834665,015: 80 01 B7 
1719834665,015: 80 01 CC 
1719834665,015: 80 01 DC 
1719834665,015: 80 01 DB 
1719834665,015: 80 01 CD 
1719834665,015: 80 01 BA 
1719834665,046: 80 01 AB 
1719834665,046: 80 01 A0 
1719834665,046: 80 01 95 
1719834665,046: 80 01 87 
1719834665,046: 80 01 76 
1719834665,046: 80 01 66 
1719834665,046: 80 01 5C 
1719834665,077: 80 01 5B 
1719834665,077: 80 01 5D 
1719834665,077: 80 01 5B 
1719834665,077: 80 01 55 
1719834665,077: 80 01 50 
1719834665,077: 80 01 51 
1719834665,077: 80 01 54 
1719834665,077: 80 01 51 
1719834665,077: 80 01 45 
1719834665,077: 80 01 39 
1719834665,077: 80 01 34 
1719834665,077: 80 01 36 
1719834665,077: 80 01 35 
1719834665,077: 80 01 2B 
1719834665,077: 80 01 1C 
1719834665,077: 80 01 10 
1719834665,077: 80 01 0B 
1719834665,077: 80 01 08 
1719834665,077: 80 01 00 
1719834665,077: 80 00 F2 
1719834665,077: 80 00 E8 
1719834665,077: 80 00 E5 
1719834665,077: 80 00 E5 
1719834665,108: 80 00 E2 
1719834665,108: 80 00 DC 
1719834665,108: 80 00 D9 
1719834665,108: 80 00 DF 
1719834665,108: 80 00 EA 
1719834665,108: 80 00 F1 
1719834665,108: 80 00 F0 
1719834665,108: 80 00 EE 
1719834665,108: 80 00 EE 
1719834665,108: 80 00 EE 
1719834665,108: 80 00 E7 
1719834665,108: 80 00 D6 
1719834665,108: 80 00 C3 
1719834665,108: 80 00 BA 
1719834665,108: 80 00 BB 
1719834665,139: 80 00 BD 
1719834665,139: 80 00 B7 
1719834665,139: 80 00 AB 
1719834665,139: 80 00 A4 
1719834665,139: 80 00 A7 
1719834665,139: 80 00 B4 
1719834665,139: 80 00 BF 
1719834665,139: 80 00 C5 
1719834665,139: 80 00 C4 
1719834665,139: 80 00 C0 
1719834665,139: 80 00 BC 
1719834665,139: 80 00 BB 
1719834665,139: 80 00 BD 
1719834665,139: 80 00 BD 
1719834665,139: 80 00 B8 
1719834665,170: 80 00 AE 
1719834665,170: 80 00 AC 
1719834665,170: 80 00 B9 
1719834665,170: 80 00 CE 
1719834665,170: 80 00 D9 
1719834665,170: 80 00 D1 
1719834665,170: 80 00 C4 
1719834665,170: 80 00 C3 
1719834665,170: 80 00 D1 
1719834665,170: 80 00 DA 
1719834665,170: 80 00 D1 
1719834665,170: 80 00 BB 
1719834665,170: 80 00 A9 
1719834665,170: 80 00 A7 
1719834665,170: 80 00 AD 
1719834665,200: 80 00 AE 
1719834665,200: 80 00 A8 
1719834665,200: 80 00 A3 
1719834665,200: 80 00 A4 
1719834665,200: 80 00 AA 
1719834665,200: 80 00 AF 
1719834665,200: 80 00 AF 
1719834665,200: 80 00 AC 
1719834665,200: 80 00 A8 
1719834665,200: 80 00 A6 
1719834665,200: 80 00 A5 
1719834665,200: 80 00 A2 
1719834665,200: 80 00 9B 
1719834665,200: 80 00 91 
1719834665,200: 80 00 8D 
1719834665,231: 80 00 8E 
1719834665,231: 80 00 8F 
1719834665,231: 80 00 86 
1719834665,231: 80 00 7A 
1719834665,231: 80 00 76 
1719834665,231: 80 00 82 
1719834665,231: 80 00 93 
1719834665,231: 80 00 9C 
1719834665,231: 80 00 96 
1719834665,231: 80 00 8E 
1719834665,231: 80 00 91 
1719834665,231: 80 00 A0 
1719834665,231: 80 00 AC 
1719834665,231: 80 00 AA 
1719834665,231: 80 00 98 
1719834665,231: 80 00 85 
1719834665,231: 80 00 7D 
1719834665,231: 80 00 80 
1719834665,231: 80 00 86 
1719834665,231: 80 00 85 
1719834665,231: 80 00 79 
1719834665,231: 80 00 6C 
1719834665,262: 80 00 64 
1719834665,262: 80 00 65 
1719834665,262: 80 00 63 
1719834665,262: 80 00 59 
1719834665,262: 80 00 4D 
1719834665,262: 80 00 50 
1719834665,262: 80 00 69 
1719834665,262: 80 00 91 
1719834665,293: 80 00 BB 
1719834665,293: 80 00 E1 
1719834665,293: 80 01 06 
1719834665,293: 80 01 2F 
1719834665,293: 80 01 57 
1719834665,293: 80 01 73 
1719834665,293: 80 01 7C 
1719834665,293: 80 01 76 
1719834665,293: 80 01 67 
1719834665,293: 80 01 54 
1719834665,293: 80 01 3B 
1719834665,293: 80 01 1D 
1719834665,293: 80 01 04 
1719834665,293: 80 00 F8 
1719834665,293: 80 00 FC 
1719834665,324: 80 01 04 
1719834665,324: 80 01 04 
1719834665,324: 80 00 F5 
1719834665,324: 80 00 E0 
1719834665,324: 80 00 CE 
1719834665,324: 80 00 C2 
1719834665,324: 80 00 AF 
1719834665,324: 80 00 8F 
1719834665,324: 80 00 66 
1719834665,324: 80 00 43 
1719834665,324: 80 00 2F 
1719834665,324: 80 00 27 
1719834665,324: 80 00 21 
1719834665,324: 80 00 19 
1719834665,324: 80 00 17 
1719834665,324: 80 00 22 
1719834665,324: 80 00 35 
1719834665,324: 80 00 42 
1719834665,324: 80 00 3F 
1719834665,324: 80 00 34 
1719834665,324: 80 00 30 
1719834665,324: 80 00 38 
1719834665,355: 80 00 44 
1719834665,355: 80 00 43 
1719834665,355: 80 00 34 
1719834665,355: 80 00 24 
1719834665,355: 80 00 27 
1719834665,355: 80 00 39 
1719834665,355: 80 00 49 
1719834665,355: 80 00 48 
1719834665,355: 80 00 3E 
1719834665,355: 80 00 3F 
1719834665,355: 80 00 50 
1719834665,355: 80 00 63 
1719834665,355: 80 00 65 
1719834665,355: 80 00 59 
1719834665,386: 02 C8 
1719834665,386: 80 00 4F 
1719834665,386: 80 00 54 
1719834665,386: 80 00 61 
1719834665,386: 80 00 72 
1719834665,386: 80 00 88 
1719834665,386: 80 00 AA 
1719834665,386: 80 00 DF 
1719834665,386: 80 01 19 
1719834665,386: 80 01 3B 
1719834665,386: 80 01 33 
1719834665,386: 80 01 19 
1719834665,386: 80 01 0B 
1719834665,386: 80 01 03 
1719834665,417: 80 00 C4 
1719834665,417: 80 00 16 
1719834665,417: 80 FF 17 
1719834665,417: 80 FE 3F 
1719834665,417: 80 FE 19 
1719834665,417: 80 FE E4 
1719834665,417: 80 00 A6 
1719834665,417: 80 03 7F 
1719834665,417: 80 07 CE 
1719834665,417: 80 0D C6 
1719834665,417: 80 14 E1 
1719834665,417: 86 02 D3 
1719834665,417: 03 53 
1719834665,417: 80 1B FE 
1719834665,417: 80 22 1D 
1719834665,417: 80 27 0B 
1719834665,417: 80 2B 11 
1719834665,448: 80 2D F8 
1719834665,448: 80 2E 8B 
1719834665,448: 80 2B 6D 
1719834665,448: 80 24 85 
1719834665,448: 80 1B 88 
1719834665,448: 80 12 E3 
1719834665,448: 80 0B F9 
1719834665,448: 80 06 77 
1719834665,448: 80 01 5A 
1719834665,448: 80 FC 6E 
1719834665,448: 80 F8 BA 
1719834665,448: 80 F7 6F 
1719834665,448: 80 F8 9F 
1719834665,448: 80 FB 16 
1719834665,448: 80 FD 49 
1719834665,448: 80 FE 62 
1719834665,448: 80 FE 7D 
1719834665,448: 80 FE 22 
1719834665,448: 80 FD AB 
1719834665,448: 80 FD 24 
1719834665,448: 80 FC 82 
1719834665,448: 80 FB CA 
1719834665,448: 80 FB 0D 
1719834665,479: 80 FA 5E 
1719834665,479: 80 F9 CF 
1719834665,479: 80 F9 75 
1719834665,479: 80 F9 56 
1719834665,479: 80 F9 66 
1719834665,479: 80 F9 89 
1719834665,479: 80 F9 A3 
1719834665,510: 80 F9 A3 
1719834665,510: 80 F9 89 
1719834665,510: 80 F9 67 
1719834665,510: 80 F9 52 
1719834665,510: 80 F9 5F 
1719834665,510: 80 F9 94 
1719834665,510: 80 F9 E9 
1719834665,510: 80 FA 43 
1719834665,510: 80 FA 82 
1719834665,510: 80 FA 96 
1719834665,510: 80 FA 86 
1719834665,510: 80 FA 6A 
1719834665,510: 80 FA 5A 
1719834665,510: 80 FA 5E 
1719834665,510: 80 FA 72 
1719834665,510: 80 FA 94 
1719834665,510: 80 FA C3 
1719834665,510: 80 FA FA 
1719834665,510: 80 FB 2B 
1719834665,510: 80 FB 46 
1719834665,510: 80 FB 46 
1719834665,510: 80 FB 3D 
1719834665,510: 80 FB 43 
1719834665,541: 80 FB 63 
1719834665,541: 80 FB 91 
1719834665,541: 80 FB B6 
1719834665,541: 80 FB C8 
1719834665,541: 80 FB D2 
1719834665,541: 80 FB E4 
1719834665,541: 80 FB FE 
1719834665,541: 80 FC 14 
1719834665,541: 80 FC 20 
1719834665,541: 80 FC 28 
1719834665,541: 80 FC 37 
1719834665,541: 80 FC 4E 
1719834665,541: 80 FC 66 
1719834665,541: 80 FC 7C 
1719834665,541: 80 FC 93 
1719834665,572: 80 FC AD 
1719834665,572: 80 FC C1 
1719834665,572: 80 FC CA 
1719834665,572: 80 FC CC 
1719834665,572: 80 FC D4 
1719834665,572: 80 FC E3 
1719834665,572: 80 FC F1 
1719834665,572: 80 FC F7 
1719834665,572: 80 FC F9 
1719834665,572: 80 FD 01 
1719834665,572: 80 FD 0F 
1719834665,572: 80 FD 1A 
1719834665,572: 80 FD 1F 
1719834665,572: 80 FD 1F 
1719834665,572: 80 FD 21 
1719834665,603: 80 FD 23 
1719834665,603: 80 FD 21 
1719834665,603: 80 FD 19 
1719834665,603: 80 FD 0E 
1719834665,603: 80 FD 00 
1719834665,603: 80 FC ED 
1719834665,603: 80 FC D6 
1719834665,603: 80 FC C4 
1719834665,603: 80 FC C0 
1719834665,603: 80 FC C6 
1719834665,603: 80 FC C3 
1719834665,603: 80 FC AF 
1719834665,603: 80 FC 90 
1719834665,603: 80 FC 78 
1719834665,603: 80 FC 72 
1719834665,634: 80 FC 77 
1719834665,634: 80 FC 75 
1719834665,634: 80 FC 65 
1719834665,634: 80 FC 4A 
1719834665,634: 80 FC 31 
1719834665,634: 80 FC 20 
1719834665,634: 80 FC 17 
1719834665,634: 80 FC 14 
1719834665,634: 80 FC 18 
1719834665,634: 80 FC 20 
1719834665,634: 80 FC 29 
1719834665,634: 80 FC 32 
1719834665,634: 80 FC 3E 
1719834665,634: 80 FC 53 
1719834665,634: 80 FC 76 
1719834665,665: 80 FC 9E 
1719834665,665: 80 FC C4 
1719834665,665: 80 FC E4 
1719834665,665: 80 FD 05 
1719834665,665: 80 FD 2C 
1719834665,665: 80 FD 5B 
1719834665,665: 80 FD 8D 
1719834665,665: 80 FD BF 
1719834665,665: 80 FD F2 
1719834665,665: 80 FE 22 
1719834665,665: 80 FE 4F 
1719834665,665: 80 FE 79 
1719834665,665: 80 FE A5 
1719834665,665: 80 FE D7 
1719834665,665: 80 FF 0A 
1719834665,697: 80 FF 34 
1719834665,697: 80 FF 58 
1719834665,697: 80 FF 7E 
1719834665,697: 80 FF AF 
1719834665,697: 80 FF E7 
1719834665,697: 80 00 16 
1719834665,697: 80 00 35 
1719834665,697: 80 00 4C 
1719834665,697: 80 00 69 
1719834665,697: 80 00 8F 
1719834665,697: 80 00 B6 
1719834665,697: 80 00 D3 
1719834665,697: 80 00 E5 
1719834665,697: 80 00 F4 
1719834665,697: 80 01 07 
1719834665,727: 80 01 1E 
1719834665,727: 80 01 35 
1719834665,727: 80 01 48 
1719834665,727: 80 01 59 
1719834665,727: 80 01 68 
1719834665,727: 80 01 73 
1719834665,727: 80 01 7B 
1719834665,727: 80 01 83 
1719834665,727: 80 01 8E 
1719834665,727: 80 01 9F 
1719834665,727: 80 01 B1 
1719834665,727: 80 01 BF 
1719834665,727: 80 01 C5 
1719834665,727: 80 01 C6 
1719834665,727: 80 01 C9 
1719834665,759: 80 01 CE 
1719834665,759: 80 01 D3 
1719834665,759: 80 01 D1 
1719834665,759: 80 01 C4 
1719834665,759: 80 01 B2 
1719834665,759: 80 01 A3 
1719834665,759: 80 01 A0 
1719834665,759: 80 01 A7 
1719834665,759: 80 01 AF 
1719834665,759: 80 01 AF 
1719834665,759: 80 01 A9 
1719834665,759: 80 01 A8 
1719834665,759: 80 01 B3 
1719834665,759: 80 01 C3 
1719834665,759: 80 01 CB 
1719834665,789: 80 01 C6 
1719834665,789: 80 01 BB 
1719834665,789: 80 01 B6 
1719834665,789: 80 01 B8 
1719834665,789: 80 01 BA 
1719834665,789: 80 01 B6 
1719834665,789: 80 01 AC 
1719834665,789: 80 01 A4 
1719834665,789: 80 01 A0 
1719834665,789: 80 01 9E 
1719834665,789: 80 01 9B 
1719834665,789: 80 01 97 
1719834665,789: 80 01 91 
1719834665,789: 80 01 89 
1719834665,789: 80 01 81 
1719834665,789: 80 01 7A 
1719834665,789: 80 01 76 
1719834665,789: 80 01 70 
1719834665,789: 80 01 66 
1719834665,789: 80 01 58 
1719834665,789: 80 01 4B 
1719834665,789: 80 01 45 
1719834665,820: 80 01 42 
1719834665,820: 80 01 3D 
1719834665,820: 80 01 31 
1719834665,820: 80 01 23 
1719834665,820: 80 01 19 
1719834665,820: 80 01 15 
1719834665,820: 80 01 0E 
1719834665,820: 80 00 FF 
1719834665,820: 80 00 EF 
1719834665,820: 80 00 EC 
1719834665,820: 80 00 FA 
1719834665,820: 80 01 0D 
1719834665,820: 80 01 13 
1719834665,820: 80 01 0A 
1719834665,820: 80 01 00 
1719834665,852: 80 01 05 
1719834665,852: 80 01 18 
1719834665,852: 80 01 26 
1719834665,852: 80 01 20 
1719834665,852: 80 01 0A 
1719834665,852: 80 00 F8 
1719834665,852: 80 00 F2 
1719834665,852: 80 00 F4 
1719834665,852: 80 00 F1 
1719834665,852: 80 00 E6 
1719834665,852: 80 00 DB 
1719834665,852: 80 00 D9 
1719834665,852: 80 00 DE 
1719834665,852: 80 00 E2 
1719834665,852: 80 00 E2 
1719834665,883: 80 00 E3 
1719834665,883: 80 00 EA 
1719834665,883: 80 00 F4 
1719834665,883: 80 00 F6 
1719834665,883: 80 00 ED 
1719834665,883: 80 00 E2 
1719834665,883: 80 00 E0 
1719834665,883: 80 00 E5 
1719834665,883: 80 00 E4 
1719834665,883: 80 00 D7 
1719834665,883: 80 00 C7 
1719834665,883: 80 00 C3 
1719834665,883: 80 00 C8 
1719834665,883: 80 00 C6 
1719834665,883: 80 00 B6 
1719834665,915: 80 00 A4 
1719834665,915: 80 00 A2 
1719834665,915: 80 00 B2 
1719834665,915: 80 00 BF 
1719834665,915: 80 00 B9 
1719834665,915: 80 00 A8 
1719834665,915: 80 00 A1 
1719834665,915: 80 00 AE 
1719834665,915: 80 00 C4 
1719834665,915: 80 00 CE 
1719834665,915: 80 00 C7 
1719834665,915: 80 00 BA 
1719834665,915: 80 00 B5 
1719834665,915: 80 00 B7 
1719834665,915: 80 00 B9 
1719834665,945: 80 00 B4 
1719834665,945: 80 00 AC 
1719834665,945: 80 00 A6 
1719834665,945: 80 00 A4 
1719834665,945: 80 00 A8 
1719834665,945: 80 00 AE 
1719834665,945: 80 00 B4 
1719834665,945: 80 00 B8 
1719834665,945: 80 00 BD 
1719834665,945: 80 00 C3 
1719834665,945: 80 00 C8 
1719834665,945: 80 00 C9 
1719834665,945: 80 00 C4 
1719834665,945: 80 00 BD 
1719834665,945: 80 00 BB 
1719834665,976: 80 00 C0 
1719834665,976: 80 00 C5 
1719834665,976: 80 00 C6 
1719834665,976: 80 00 C1 
1719834665,976: 80 00 BB 
1719834665,976: 80 00 B5 
1719834665,976: 80 00 AF 
1719834665,976: 80 00 AA 
1719834665,976: 80 00 A8 
1719834665,976: 80 00 A8 
1719834665,976: 80 00 A5 
1719834665,976: 80 00 98 
1719834665,976: 80 00 88 
1719834665,976: 80 00 83 
1719834665,976: 80 00 90 
1719834666,007: 80 00 A1 
1719834666,007: 80 00 A4 
1719834666,007: 80 00 95 
1719834666,007: 80 00 84 
1719834666,007: 80 00 80 
1719834666,007: 80 00 87 
1719834666,007: 80 00 89 
1719834666,007: 80 00 7C 
1719834666,007: 80 00 68 
1719834666,007: 80 00 5E 
1719834666,007: 80 00 66 
1719834666,007: 80 00 7A 
1719834666,007: 80 00 96 
1719834666,007: 80 00 B9 
1719834666,007: 80 00 E8 
1719834666,038: 80 01 1D 
1719834666,038: 80 01 4D 
1719834666,038: 80 01 72 
1719834666,038: 80 01 8E 
1719834666,038: 80 01 A5 
1719834666,038: 80 01 B5 
1719834666,038: 80 01 BA 
1719834666,038: 80 01 B0 
1719834666,038: 80 01 99 
1719834666,038: 80 01 7D 
1719834666,038: 80 01 64 
1719834666,038: 80 01 56 
1719834666,038: 80 01 52 
1719834666,038: 80 01 52 
1719834666,038: 80 01 4F 
1719834666,069: 80 01 46 
1719834666,069: 80 01 3B 
1719834666,069: 80 01 30 
1719834666,069: 80 01 22 
1719834666,069: 80 01 0F 
1719834666,069: 80 00 FA 
1719834666,069: 80 00 E4 
1719834666,069: 80 00 CD 
1719834666,069: 80 00 B0 
1719834666,069: 80 00 92 
1719834666,069: 80 00 81 
1719834666,069: 80 00 89 
1719834666,069: 80 00 9F 
1719834666,069: 80 00 AB 
1719834666,069: 80 00 A2 
1719834666,100: 80 00 90 
1719834666,100: 80 00 8B 
1719834666,100: 80 00 97 
1719834666,100: 80 00 A5 
1719834666,100: 80 00 A1 
1719834666,100: 80 00 8A 
1719834666,100: 80 00 6E 
1719834666,100: 80 00 5E 
1719834666,100: 80 00 5D 
1719834666,100: 80 00 61 
1719834666,100: 80 00 61 
1719834666,100: 80 00 5A 
1719834666,100: 80 00 52 
1719834666,100: 80 00 4D 
1719834666,100: 80 00 51 
1719834666,132: 80 00 5E 
1719834666,132: 80 00 6C 
1719834666,132: 80 00 73 
1719834666,132: 80 00 70 
1719834666,132: 80 00 6B 
1719834666,132: 80 00 6C 
1719834666,132: 80 00 73 
1719834666,132: 80 00 7E 
1719834666,132: 80 00 93 
1719834666,132: 80 00 B4 
1719834666,132: 80 00 E1 
1719834666,132: 80 01 14 
1719834666,132: 80 01 3C 
1719834666,132: 80 01 45 
1719834666,132: 80 01 30 
1719834666,162: 80 01 16 
1719834666,162: 80 01 0A 
1719834666,162: 80 00 ED 
1719834666,162: 80 00 81 
1719834666,162: 80 FF AE 
1719834666,162: 80 FE B9 
1719834666,162: 80 FE 2B 
1719834666,162: 80 FE 73 
1719834666,162: 80 FF A7 
1719834666,162: 80 01 CB 
1719834666,162: 80 05 29 
1719834666,162: 80 0A 2F 
1719834666,162: 80 10 C6 
1719834666,162: 80 17 FC 
1719834666,162: 86 02 E2 
1719834666,162: 03 51 
1719834666,162: 80 1E 87 
1719834666,162: 80 23 C1 
1719834666,162: 80 27 F0 
1719834666,162: 80 2B 60 
1719834666,162: 80 2D 58 
1719834666,162: 80 2C 43 
1719834666,162: 80 27 2C 
1719834666,162: 80 1F 00 
1719834666,162: 80 16 22 
1719834666,193: 80 0E A4 
1719834666,193: 80 08 E7 
1719834666,193: 80 03 F8 
1719834666,193: 80 FF 1C 
1719834666,193: 80 FA D3 
1719834666,193: 80 F8 61 
1719834666,193: 80 F8 79 
1719834666,193: 80 FA 78 
1719834666,193: 80 FC EB 
1719834666,193: 80 FE 96 
1719834666,193: 80 FF 1C 
1719834666,193: 80 FE DE 
1719834666,193: 80 FE 61 
1719834666,193: 80 FD E2 
1719834666,193: 80 FD 5B 
1719834666,225: 80 FC BB 
1719834666,225: 80 FC 08 
1719834666,225: 80 FB 5F 
1719834666,225: 80 FA D1 
1719834666,225: 80 FA 69 
1719834666,225: 80 FA 28 
1719834666,225: 80 FA 09 
1719834666,225: 80 FA 0B 
1719834666,225: 80 FA 20 
1719834666,225: 80 FA 2A 
1719834666,225: 80 FA 15 
1719834666,225: 80 F9 E5 
1719834666,225: 80 F9 BD 
1719834666,225: 80 F9 BD 
1719834666,225: 80 F9 EE 
1719834666,257: 80 FA 3E 
1719834666,257: 80 FA 93 
1719834666,257: 80 FA D7 
1719834666,257: 80 FA FD 
1719834666,257: 80 FB 07 
1719834666,257: 80 FA FB 
1719834666,257: 80 FA E8 
1719834666,257: 80 FA DB 
1719834666,257: 80 FA E2 
1719834666,257: 80 FA FF 
1719834666,257: 80 FB 2D 
1719834666,257: 80 FB 61 
1719834666,257: 80 FB 91 
1719834666,257: 80 FB B1 
1719834666,257: 80 FB C3 
1719834666,287: 80 FB CF 
1719834666,287: 80 FB DE 
1719834666,287: 80 FB F6 
1719834666,287: 80 FC 12 
1719834666,287: 80 FC 2F 
1719834666,287: 80 FC 4B 
1719834666,287: 80 FC 66 
1719834666,287: 80 FC 7F 
1719834666,287: 80 FC 92 
1719834666,287: 80 FC A0 
1719834666,287: 80 FC B0 
1719834666,287: 80 FC C5 
1719834666,287: 80 FC DB 
1719834666,287: 80 FC ED 
1719834666,287: 80 FD 01 
1719834666,317: 80 FD 1C 
1719834666,317: 80 FD 3B 
1719834666,317: 80 FD 50 
1719834666,317: 80 FD 55 
1719834666,317: 80 FD 55 
1719834666,317: 80 FD 61 
1719834666,317: 80 FD 7C 
1719834666,317: 80 FD 94 
1719834666,317: 80 FD 98 
1719834666,317: 80 FD 8E 
1719834666,317: 80 FD 8A 
1719834666,317: 80 FD 96 
1719834666,317: 80 FD A9 
1719834666,317: 80 FD B7 
1719834666,317: 80 FD B9 
1719834666,348: 80 FD B3 
1719834666,348: 80 FD AB 
1719834666,348: 80 FD A0 
1719834666,348: 80 FD 94 
1719834666,348: 80 FD 87 
1719834666,348: 80 FD 78 
1719834666,348: 80 FD 68 
1719834666,348: 80 FD 57 
1719834666,348: 80 FD 4A 
1719834666,348: 80 FD 40 
1719834666,348: 80 FD 31 
1719834666,348: 80 FD 1D 
1719834666,348: 80 FD 0B 
1719834666,348: 80 FD 04 
1719834666,348: 80 FD 00 
1719834666,380: 80 FC F1 
1719834666,380: 80 FC D1 
1719834666,380: 80 FC AE 
1719834666,380: 80 FC 98 
1719834666,380: 80 FC 90 
1719834666,380: 80 FC 87 
1719834666,380: 80 FC 76 
1719834666,380: 80 FC 64 
1719834666,380: 80 FC 5D 
1719834666,380: 80 FC 5C 
1719834666,380: 80 FC 59 
1719834666,380: 02 C8 
1719834666,380: 80 FC 52 
1719834666,380: 80 FC 56 
1719834666,380: 80 FC 6D 
1719834666,380: 80 FC 8B 
1719834666,380: 80 FC 9B 
1719834666,380: 80 FC 9C 
1719834666,380: 80 FC A0 
1719834666,380: 80 FC BA 
1719834666,380: 80 FC E4 
1719834666,412: 80 FD 0B 
1719834666,412: 80 FD 29 
1719834666,412: 80 FD 45 
1719834666,412: 80 FD 6A 
1719834666,412: 80 FD 98 
1719834666,412: 80 FD C7 
1719834666,412: 80 FD F6 
1719834666,412: 80 FE 29 
1719834666,412: 80 FE 60 
1719834666,412: 80 FE 93 
1719834666,412: 80 FE BE 
1719834666,412: 80 FE E4 
1719834666,412: 80 FF 0B 
1719834666,412: 80 FF 37 
1719834666,412: 80 FF 64 
1719834666,444: 80 FF 8B 
1719834666,444: 80 FF AE 
1719834666,444: 80 FF D2 
1719834666,444: 80 FF F6 
1719834666,444: 80 00 19 
1719834666,444: 80 00 36 
1719834666,444: 80 00 50 
1719834666,444: 80 00 69 
1719834666,444: 80 00 84 
1719834666,444: 80 00 9D 
1719834666,444: 80 00 B1 
1719834666,444: 80 00 BF 
1719834666,444: 80 00 CD 
1719834666,444: 80 00 E1 
1719834666,444: 80 00 FD 
1719834666,475: 80 01 18 
1719834666,475: 80 01 2B 
1719834666,475: 80 01 36 
1719834666,475: 80 01 3E 
1719834666,475: 80 01 48 
1719834666,475: 80 01 4F 
1719834666,475: 80 01 54 
1719834666,475: 80 01 5A 
1719834666,475: 80 01 66 
1719834666,475: 80 01 77 
1719834666,475: 80 01 84 
1719834666,475: 80 01 87 
1719834666,475: 80 01 89 
1719834666,475: 80 01 94 
1719834666,475: 80 01 A8 
1719834666,475: 80 01 BB 
1719834666,475: 80 01 C2 
1719834666,475: 80 01 BC 
1719834666,475: 80 01 B3 
1719834666,475: 80 01 B0 
1719834666,475: 80 01 B3 
1719834666,475: 80 01 BA 
1719834666,506: 80 01 C2 
1719834666,506: 80 01 CA 
1719834666,506: 80 01 D0 
1719834666,506: 80 01 CF 
1719834666,506: 80 01 CA 
1719834666,506: 80 01 C3 
1719834666,506: 80 01 BC 
1719834666,506: 80 01 B7 
1719834666,537: 80 01 B3 
1719834666,537: 80 01 AD 
1719834666,537: 80 01 A2 
1719834666,537: 80 01 92 
1719834666,537: 80 01 84 
1719834666,537: 80 01 83 
1719834666,537: 80 01 91 
1719834666,537: 80 01 A1 
1719834666,537: 80 01 A8 
1719834666,537: 80 01 A3 
1719834666,537: 80 01 9B 
1719834666,537: 80 01 96 
1719834666,537: 80 01 93 
1719834666,537: 80 01 89 
1719834666,537: 80 01 80 
1719834666,568: 80 01 81 
1719834666,568: 80 01 8A 
1719834666,568: 80 01 8C 
1719834666,568: 80 01 7A 
1719834666,568: 80 01 5E 
1719834666,568: 80 01 4F 
1719834666,568: 80 01 5B 
1719834666,568: 80 01 70 
1719834666,568: 80 01 75 
1719834666,568: 80 01 62 
1719834666,568: 80 01 4B 
1719834666,568: 80 01 42 
1719834666,568: 80 01 4B 
1719834666,568: 80 01 56 
1719834666,568: 80 01 57 
1719834666,568: 80 01 4F 
1719834666,568: 80 01 45 
1719834666,568: 80 01 3F 
1719834666,568: 80 01 39 
1719834666,568: 80 01 31 
1719834666,568: 80 01 27 
1719834666,568: 80 01 1D 
1719834666,599: 80 01 14 
1719834666,599: 80 01 0C 
1719834666,599: 80 01 06 
1719834666,599: 80 01 01 
1719834666,599: 80 00 FD 
1719834666,599: 80 00 FB 
1719834666,599: 80 00 FC 
1719834666,599: 80 00 FE 
1719834666,599: 80 00 FA 
1719834666,599: 80 00 EE 
1719834666,599: 80 00 E5 
1719834666,599: 80 00 E3 
1719834666,599: 80 00 E6 
1719834666,599: 80 00 E1 
1719834666,599: 80 00 CF 
1719834666,630: 80 00 BE 
1719834666,630: 80 00 C2 
1719834666,630: 80 00 D7 
1719834666,630: 80 00 E9 
1719834666,630: 80 00 E4 
1719834666,630: 80 00 D0 
1719834666,630: 80 00 C3 
1719834666,630: 80 00 CA 
1719834666,630: 80 00 D6 
1719834666,630: 80 00 D4 
1719834666,630: 80 00 C3 
1719834666,630: 80 00 B1 
1719834666,630: 80 00 AC 
1719834666,630: 80 00 B1 
1719834666,630: 80 00 B5 
1719834666,661: 80 00 B5 
1719834666,661: 80 00 B3 
1719834666,661: 80 00 B3 
1719834666,661: 80 00 B2 
1719834666,661: 80 00 AD 
1719834666,661: 80 00 A5 
1719834666,661: 80 00 A1 
1719834666,661: 80 00 A1 
1719834666,661: 80 00 A2 
1719834666,661: 80 00 A0 
1719834666,661: 80 00 A1 
1719834666,661: 80 00 A5 
1719834666,661: 80 00 AC 
1719834666,661: 80 00 AF 
1719834666,661: 80 00 AE 
1719834666,692: 80 00 AD 
1719834666,692: 80 00 AE 
1719834666,692: 80 00 AD 
1719834666,692: 80 00 A4 
1719834666,692: 80 00 95 
1719834666,692: 80 00 8D 
1719834666,692: 80 00 8D 
1719834666,692: 80 00 8C 
1719834666,692: 80 00 81 
1719834666,692: 80 00 70 
1719834666,692: 80 00 6E 
1719834666,692: 80 00 84 
1719834666,692: 80 00 A1 
1719834666,692: 80 00 AD 
1719834666,692: 80 00 A2 
1719834666,722: 80 00 94 
1719834666,722: 80 00 9A 
1719834666,722: 80 00 B1 
1719834666,722: 80 00 C2 
1719834666,722: 80 00 BD 
1719834666,722: 80 00 A9 
1719834666,722: 80 00 9B 
1719834666,722: 80 00 9B 
1719834666,722: 80 00 9F 
1719834666,722: 80 00 9C 
1719834666,722: 80 00 8E 
1719834666,722: 80 00 82 
1719834666,722: 80 00 7E 
1719834666,722: 80 00 81 
1719834666,722: 80 00 83 
1719834666,753: 80 00 80 
1719834666,753: 80 00 7C 
1719834666,753: 80 00 78 
1719834666,753: 80 00 75 
1719834666,753: 80 00 6D 
1719834666,753: 80 00 5E 
1719834666,753: 80 00 4B 
1719834666,753: 80 00 3B 
1719834666,753: 80 00 35 
1719834666,753: 80 00 34 
1719834666,753: 80 00 35 
1719834666,753: 80 00 37 
1719834666,753: 80 00 42 
1719834666,753: 80 00 5F 
1719834666,753: 80 00 8A 
1719834666,783: 80 00 B8 
1719834666,783: 80 00 DE 
1719834666,783: 80 00 FB 
1719834666,783: 80 01 18 
1719834666,783: 80 01 36 
1719834666,783: 80 01 4D 
1719834666,783: 80 01 53 
1719834666,783: 80 01 48 
1719834666,783: 80 01 34 
1719834666,783: 80 01 1F 
1719834666,783: 80 01 0C 
1719834666,783: 80 00 F7 
1719834666,783: 80 00 E4 
1719834666,783: 80 00 DD 
1719834666,783: 80 00 DF 
1719834666,814: 80 00 DE 
1719834666,814: 80 00 CD 
1719834666,814: 80 00 B1 
1719834666,814: 80 00 9C 
1719834666,814: 80 00 99 
1719834666,814: 80 00 9C 
1719834666,814: 80 00 8F 
1719834666,814: 80 00 6C 
1719834666,814: 80 00 44 
1719834666,814: 80 00 2F 
1719834666,814: 80 00 2E 
1719834666,814: 80 00 32 
1719834666,814: 80 00 2C 
1719834666,814: 80 00 21 
1719834666,814: 80 00 1E 
1719834666,846: 80 00 25 
1719834666,846: 80 00 2D 
1719834666,846: 80 00 2C 
1719834666,846: 80 00 26 
1719834666,846: 80 00 26 
1719834666,846: 80 00 2E 
1719834666,846: 80 00 36 
1719834666,846: 80 00 35 
1719834666,846: 80 00 31 
1719834666,846: 80 00 35 
1719834666,846: 80 00 43 
1719834666,846: 80 00 4F 
1719834666,846: 80 00 4F 
1719834666,846: 80 00 47 
1719834666,846: 80 00 46 
1719834666,846: 80 00 53 
1719834666,846: 80 00 64 
1719834666,846: 80 00 67 
1719834666,846: 80 00 59 
1719834666,846: 80 00 4A 
1719834666,846: 80 00 4F 
1719834666,846: 80 00 64 
1719834666,846: 80 00 76 
1719834666,878: 80 00 7B 
1719834666,878: 80 00 81 
1719834666,878: 80 00 9B 
1719834666,878: 80 00 D2 
1719834666,878: 80 01 15 
1719834666,878: 80 01 3D 
1719834666,878: 80 01 33 
1719834666,878: 80 01 08 
1719834666,878: 80 00 E5 
1719834666,878: 80 00 D2 
1719834666,878: 80 00 9B 
1719834666,878: 80 00 02 
1719834666,878: 80 FF 11 
1719834666,878: 80 FE 35 
1719834666,878: 80 FD FA 
1719834666,909: 80 FE A9 
1719834666,909: 80 00 41 
1719834666,909: 80 02 D6 
1719834666,909: 80 06 CA 
1719834666,909: 80 0C 6B 
1719834666,909: 80 13 50 
1719834666,909: 80 1A 4F 
1719834666,909: 86 02 E8 
1719834666,909: 03 51 
1719834666,909: 80 20 45 
1719834666,909: 80 24 EC 
1719834666,909: 80 28 B2 
1719834666,909: 80 2B 9F 
1719834666,909: 80 2C 98 
1719834666,909: 80 2A 16 
1719834666,909: 80 23 BA 
1719834666,909: 80 1B 13 
1719834666,940: 80 12 A3 
1719834666,940: 80 0B F5 
1719834666,940: 80 06 CC 
1719834666,940: 80 02 0D 
1719834666,940: 80 FD 57 
1719834666,940: 80 F9 96 
1719834666,940: 80 F8 07 
1719834666,972: 80 F8 ED 
1719834666,972: 80 FB 3F 
1719834666,972: 80 FD 7C 
1719834666,972: 80 FE B2 
1719834666,972: 80 FE D9 
1719834666,972: 80 FE 73 
1719834666,972: 80 FD F4 
1719834666,972: 80 FD 7B 
1719834666,972: 80 FC F8 
1719834666,972: 80 FC 5A 
1719834666,972: 80 FB A6 
1719834666,972: 80 FA F4 
1719834666,972: 80 FA 62 
1719834666,972: 80 FA 05 
1719834666,972: 80 F9 DD 
1719834666,972: 80 F9 DB 
1719834666,972: 80 F9 EC 
1719834666,972: 80 F9 FC 
1719834666,972: 80 F9 FA 
1719834666,972: 80 F9 DE 
1719834666,972: 80 F9 B3 
1719834666,972: 80 F9 91 
1719834666,972: 80 F9 93 
1719834667,004: 80 F9 C5 
1719834667,004: 80 FA 1B 
1719834667,004: 80 FA 75 
1719834667,004: 80 FA B5 
1719834667,004: 80 FA CE 
1719834667,004: 80 FA CC 
1719834667,004: 80 FA C3 
1719834667,004: 80 FA C2 
1719834667,004: 80 FA CB 
1719834667,004: 80 FA DE 
1719834667,004: 80 FA FB 
1719834667,004: 80 FB 1F 
1719834667,004: 80 FB 46 
1719834667,004: 80 FB 67 
1719834667,004: 80 FB 81 
1719834667,035: 80 FB 93 
1719834667,035: 80 FB 9E 
1719834667,035: 80 FB A8 
1719834667,035: 80 FB B9 
1719834667,035: 80 FB D8 
1719834667,035: 80 FC 02 
1719834667,035: 80 FC 2D 
1719834667,035: 80 FC 50 
1719834667,035: 80 FC 68 
1719834667,035: 80 FC 77 
1719834667,035: 80 FC 82 
1719834667,035: 80 FC 91 
1719834667,035: 80 FC AA 
1719834667,035: 80 FC CB 
1719834667,035: 80 FC EC 
1719834667,066: 80 FD 02 
1719834667,066: 80 FD 0E 
1719834667,066: 80 FD 22 
1719834667,066: 80 FD 46 
1719834667,066: 80 FD 72 
1719834667,066: 80 FD 8D 
1719834667,066: 80 FD 91 
1719834667,066: 80 FD 8C 
1719834667,066: 80 FD 93 
1719834667,066: 80 FD A6 
1719834667,066: 80 FD B7 
1719834667,066: 80 FD B6 
1719834667,066: 80 FD A9 
1719834667,066: 80 FD A0 
1719834667,066: 80 FD 9F 
1719834667,066: 80 FD A2 
1719834667,066: 80 FD A0 
1719834667,066: 80 FD 9C 
1719834667,066: 80 FD 9A 
1719834667,066: 80 FD 9C 
1719834667,066: 80 FD 9A 
1719834667,066: 80 FD 90 
1719834667,097: 80 FD 80 
1719834667,097: 80 FD 71 
1719834667,097: 80 FD 65 
1719834667,097: 80 FD 56 
1719834667,097: 80 FD 3E 
1719834667,097: 80 FD 21 
1719834667,097: 80 FD 07 
1719834667,097: 80 FC F8 
1719834667,129: 80 FC EC 
1719834667,129: 80 FC DC 
1719834667,129: 80 FC C4 
1719834667,129: 80 FC A7 
1719834667,129: 80 FC 8F 
1719834667,129: 80 FC 7C 
1719834667,129: 80 FC 68 
1719834667,129: 80 FC 50 
1719834667,129: 80 FC 36 
1719834667,129: 80 FC 21 
1719834667,129: 80 FC 11 
1719834667,129: 80 FC 06 
1719834667,129: 80 FC 02 
1719834667,129: 80 FC 07 
1719834667,129: 80 FC 14 
1719834667,161: 80 FC 20 
1719834667,161: 80 FC 27 
1719834667,161: 80 FC 33 
1719834667,161: 80 FC 53 
1719834667,161: 80 FC 87 
1719834667,161: 80 FC BD 
1719834667,161: 80 FC E3 
1719834667,161: 80 FC FE 
1719834667,161: 80 FD 23 
1719834667,161: 80 FD 5C 
1719834667,161: 80 FD 9C 
1719834667,161: 80 FD CF 
1719834667,161: 80 FD F1 
1719834667,161: 80 FE 12 
1719834667,161: 80 FE 3E 
1719834667,161: 80 FE 72 
1719834667,161: 80 FE A1 
1719834667,161: 80 FE CC 
1719834667,161: 80 FE FC 
1719834667,161: 80 FF 36 
1719834667,161: 80 FF 73 
1719834667,161: 80 FF A7 
1719834667,192: 80 FF D1 
1719834667,192: 80 FF FA 
1719834667,192: 80 00 28 
1719834667,192: 80 00 57 
1719834667,192: 80 00 7D 
1719834667,192: 80 00 98 
1719834667,192: 80 00 AD 
1719834667,192: 80 00 C0 
1719834667,192: 80 00 D0 
1719834667,192: 80 00 DE 
1719834667,192: 80 00 F1 
1719834667,192: 80 01 0A 
1719834667,192: 80 01 25 
1719834667,192: 80 01 35 
1719834667,192: 80 01 39 
1719834667,224: 80 01 3A 
1719834667,224: 80 01 49 
1719834667,224: 80 01 68 
1719834667,224: 80 01 8A 
1719834667,224: 80 01 9F 
1719834667,224: 80 01 A5 
1719834667,224: 80 01 A7 
1719834667,224: 80 01 B0 
1719834667,224: 80 01 BE 
1719834667,224: 80 01 C7 
1719834667,224: 80 01 C7 
1719834667,224: 80 01 C4 
1719834667,224: 80 01 C7 
1719834667,224: 80 01 CF 
1719834667,224: 80 01 D2 
1719834667,255: 80 01 CB 
1719834667,255: 80 01 C1 
1719834667,255: 80 01 C0 
1719834667,255: 80 01 CC 
1719834667,255: 80 01 DB 
1719834667,255: 80 01 E0 
1719834667,255: 80 01 D6 
1719834667,255: 80 01 C8 
1719834667,255: 80 01 C2 
1719834667,255: 80 01 C7 
1719834667,255: 80 01 D1 
1719834667,255: 80 01 D4 
1719834667,255: 80 01 CE 
1719834667,255: 80 01 C5 
1719834667,255: 80 01 BD 
1719834667,286: 80 01 B9 
1719834667,286: 80 01 B4 
1719834667,286: 80 01 AE 
1719834667,286: 80 01 A9 
1719834667,286: 80 01 A7 
1719834667,286: 80 01 A4 
1719834667,286: 80 01 9B 
1719834667,286: 80 01 8F 
1719834667,286: 80 01 85 
1719834667,286: 80 01 80 
1719834667,286: 80 01 80 
1719834667,286: 80 01 83 
1719834667,286: 80 01 82 
1719834667,286: 80 01 7A 
1719834667,286: 80 01 6A 
1719834667,286: 80 01 58 
1719834667,286: 80 01 4D 
1719834667,286: 80 01 52 
1719834667,286: 80 01 5F 
1719834667,286: 80 01 66 
1719834667,286: 80 01 5C 
1719834667,286: 80 01 4B 
1719834667,286: 80 01 43 
1719834667,316: 80 01 4B 
1719834667,316: 80 01 56 
1719834667,316: 80 01 52 
1719834667,316: 80 01 3E 
1719834667,316: 80 01 2A 
1719834667,316: 80 01 23 
1719834667,316: 80 01 27 
1719834667,316: 80 01 29 
1719834667,316: 80 01 23 
1719834667,316: 80 01 1C 
1719834667,316: 80 01 1B 
1719834667,316: 80 01 20 
1719834667,316: 80 01 21 
1719834667,316: 80 01 1D 
1719834667,316: 80 01 16 
1719834667,348: 80 01 0E 
1719834667,348: 80 01 01 
1719834667,348: 80 00 F0 
1719834667,348: 80 00 E1 
1719834667,348: 80 00 DA 
1719834667,348: 80 00 D8 
1719834667,348: 80 00 D3 
1719834667,348: 80 00 CC 
1719834667,348: 80 00 C8 
1719834667,348: 80 00 CC 
1719834667,348: 80 00 D4 
1719834667,348: 80 00 D8 
1719834667,348: 80 00 D8 
1719834667,348: 80 00 D9 
1719834667,348: 80 00 DF 
1719834667,381: 80 00 E2 
1719834667,381: 80 00 DE 
1719834667,381: 80 00 D7 
1719834667,381: 80 00 D5 
1719834667,381: 80 00 DB 
1719834667,381: 80 00 DF 
1719834667,381: 80 00 DB 
1719834667,381: 80 00 D1 
1719834667,381: 02 C8 
1719834667,381: 80 00 CB 
1719834667,381: 80 00 CD 
1719834667,381: 80 00 D1 
1719834667,381: 80 00 D3 
1719834667,412: 80 00 CF 
1719834667,412: 80 00 C8 
1719834667,412: 80 00 C2 
1719834667,412: 80 00 BD 
1719834667,412: 80 00 BA 
1719834667,412: 80 00 B8 
1719834667,412: 80 00 B5 
1719834667,412: 80 00 B3 
1719834667,412: 80 00 B0 
1719834667,412: 80 00 AF 
1719834667,412: 80 00 B1 
1719834667,412: 80 00 B5 
1719834667,412: 80 00 B9 
1719834667,412: 80 00 BA 
1719834667,412: 80 00 B8 
1719834667,443: 80 00 B3 
1719834667,443: 80 00 AE 
1719834667,443: 80 00 AC 
1719834667,443: 80 00 AC 
1719834667,443: 80 00 AE 
1719834667,443: 80 00 B1 
1719834667,443: 80 00 B2 
1719834667,443: 80 00 AD 
1719834667,443: 80 00 A4 
1719834667,443: 80 00 9E 
1719834667,443: 80 00 A5 
1719834667,443: 80 00 B8 
1719834667,443: 80 00 C7 
1719834667,443: 80 00 C4 
1719834667,443: 80 00 B2 
1719834667,474: 80 00 A8 
1719834667,474: 80 00 B3 
1719834667,474: 80 00 CC 
1719834667,474: 80 00 D9 
1719834667,474: 80 00 CF 
1719834667,474: 80 00 BB 
1719834667,474: 80 00 B3 
1719834667,474: 80 00 BB 
1719834667,474: 80 00 C6 
1719834667,474: 80 00 C8 
1719834667,474: 80 00 C2 
1719834667,474: 80 00 BA 
1719834667,474: 80 00 B5 
1719834667,474: 80 00 AE 
1719834667,474: 80 00 A5 
1719834667,474: 80 00 9E 
1719834667,474: 80 00 9E 
1719834667,474: 80 00 A0 
1719834667,474: 80 00 9C 
1719834667,474: 80 00 93 
1719834667,474: 80 00 8B 
1719834667,474: 80 00 87 
1719834667,506: 80 00 85 
1719834667,506: 80 00 82 
1719834667,506: 80 00 7E 
1719834667,506: 80 00 79 
1719834667,506: 80 00 71 
1719834667,506: 80 00 67 
1719834667,506: 80 00 5C 
1719834667,506: 80 00 56 
1719834667,506: 80 00 57 
1719834667,506: 80 00 5F 
1719834667,506: 80 00 6C 
1719834667,506: 80 00 81 
1719834667,506: 80 00 A5 
1719834667,506: 80 00 D1 
1719834667,506: 80 00 FB 
1719834667,537: 80 01 1B 
1719834667,537: 80 01 36 
1719834667,537: 80 01 58 
1719834667,537: 80 01 84 
1719834667,537: 80 01 A8 
1719834667,537: 80 01 B1 
1719834667,537: 80 01 A0 
1719834667,537: 80 01 87 
1719834667,567: 80 01 79 
1719834667,567: 80 01 78 
1719834667,567: 80 01 75 
1719834667,567: 80 01 65 
1719834667,567: 80 01 4B 
1719834667,567: 80 01 33 
1719834667,567: 80 01 23 
1719834667,567: 80 01 19 
1719834667,567: 80 01 0D 
1719834667,567: 80 00 FA 
1719834667,567: 80 00 E2 
1719834667,567: 80 00 C5 
1719834667,567: 80 00 A8 
1719834667,567: 80 00 8D 
1719834667,567: 80 00 7B 
1719834667,597: 80 00 73 
1719834667,597: 80 00 73 
1719834667,597: 80 00 74 
1719834667,597: 80 00 77 
1719834667,597: 80 00 7B 
1719834667,597: 80 00 84 
1719834667,597: 80 00 8E 
1719834667,597: 80 00 93 
1719834667,597: 80 00 94 
1719834667,597: 80 00 93 
1719834667,597: 80 00 94 
1719834667,597: 80 00 97 
1719834667,597: 80 00 9A 
1719834667,597: 80 00 98 
1719834667,597: 80 00 93 
1719834667,597: 80 00 8D 
1719834667,597: 80 00 8B 
1719834667,597: 80 00 8D 
1719834667,597: 80 00 8E 
1719834667,597: 80 00 8B 
1719834667,597: 80 00 87 
1719834667,597: 80 00 86 
1719834667,628: 80 00 8B 
1719834667,628: 80 00 8C 
1719834667,628: 80 00 84 
1719834667,628: 80 00 7B 
1719834667,628: 80 00 7A 
1719834667,628: 80 00 85 
1719834667,628: 80 00 96 
1719834667,628: 80 00 AD 
1719834667,628: 80 00 CC 
1719834667,628: 80 00 F7 
1719834667,628: 80 01 2C 
1719834667,628: 80 01 5C 
1719834667,628: 80 01 6F 
1719834667,628: 80 01 63 
1719834667,628: 80 01 4E 
1719834667,659: 80 01 41 
1719834667,659: 80 01 22 
1719834667,659: 80 00 B6 
1719834667,659: 80 FF E5 
1719834667,659: 80 FE EE 
1719834667,659: 80 FE 54 
1719834667,659: 80 FE 85 
1719834667,659: 80 FF A2 
1719834667,659: 80 01 AB 
1719834667,659: 80 04 D6 
1719834667,659: 80 09 87 
1719834667,659: 80 0F C1 
1719834667,659: 80 16 C0 
1719834667,659: 86 02 F0 
1719834667,659: 03 50 
1719834667,659: 80 1D 4F 
1719834667,659: 80 22 A5 
1719834667,690: 80 26 D5 
1719834667,690: 80 2A 2C 
1719834667,690: 80 2C 30 
1719834667,690: 80 2B 85 
1719834667,690: 80 27 1E 
1719834667,690: 80 1F 8C 
1719834667,690: 80 16 EC 
1719834667,690: 80 0F 5E 
1719834667,690: 80 09 8C 
1719834667,690: 80 04 AA 
1719834667,690: 80 FF E3 
1719834667,690: 80 FB 85 
1719834667,690: 80 F8 CA 
1719834667,690: 80 F8 89 
1719834667,690: 80 FA 49 
1719834667,721: 80 FC A4 
1719834667,721: 80 FE 55 
1719834667,721: 80 FE F0 
1719834667,721: 80 FE C8 
1719834667,721: 80 FE 57 
1719834667,721: 80 FD D4 
1719834667,721: 80 FD 44 
1719834667,721: 80 FC A6 
1719834667,721: 80 FC 00 
1719834667,721: 80 FB 5A 
1719834667,721: 80 FA B8 
1719834667,721: 80 FA 2F 
1719834667,721: 80 F9 DA 
1719834667,721: 80 F9 C2 
1719834667,721: 80 F9 DA 
1719834667,753: 80 F9 FD 
1719834667,753: 80 FA 09 
1719834667,753: 80 F9 F1 
1719834667,753: 80 F9 C4 
1719834667,753: 80 F9 A1 
1719834667,753: 80 F9 A0 
1719834667,753: 80 F9 CB 
1719834667,753: 80 FA 17 
1719834667,753: 80 FA 6A 
1719834667,753: 80 FA AF 
1719834667,753: 80 FA D7 
1719834667,753: 80 FA E3 
1719834667,753: 80 FA DC 
1719834667,753: 80 FA D0 
1719834667,753: 80 FA CD 
1719834667,784: 80 FA DC 
1719834667,784: 80 FA FE 
1719834667,784: 80 FB 2A 
1719834667,784: 80 FB 58 
1719834667,784: 80 FB 82 
1719834667,784: 80 FB A6 
1719834667,784: 80 FB C2 
1719834667,784: 80 FB D2 
1719834667,784: 80 FB DB 
1719834667,784: 80 FB E6 
1719834667,784: 80 FB FE 
1719834667,784: 80 FC 24 
1719834667,784: 80 FC 4E 
1719834667,784: 80 FC 70 
1719834667,784: 80 FC 86 
1719834667,815: 80 FC 96 
1719834667,815: 80 FC A8 
1719834667,815: 80 FC BE 
1719834667,815: 80 FC D2 
1719834667,815: 80 FC E2 
1719834667,815: 80 FC F0 
1719834667,815: 80 FC FE 
1719834667,815: 80 FD 0B 
1719834667,815: 80 FD 1B 
1719834667,815: 80 FD 2F 
1719834667,815: 80 FD 4B 
1719834667,815: 80 FD 66 
1719834667,815: 80 FD 76 
1719834667,815: 80 FD 7A 
1719834667,815: 80 FD 7B 
1719834667,846: 80 FD 89 
1719834667,846: 80 FD A0 
1719834667,846: 80 FD B4 
1719834667,846: 80 FD BA 
1719834667,846: 80 FD B5 
1719834667,846: 80 FD B5 
1719834667,846: 80 FD C0 
1719834667,846: 80 FD CF 
1719834667,846: 80 FD D6 
1719834667,846: 80 FD D0 
1719834667,846: 80 FD C6 
1719834667,846: 80 FD C2 
1719834667,846: 80 FD C3 
1719834667,846: 80 FD C1 
1719834667,846: 80 FD B9 
1719834667,877: 80 FD AD 
1719834667,877: 80 FD A2 
1719834667,877: 80 FD 99 
1719834667,877: 80 FD 8D 
1719834667,877: 80 FD 7A 
1719834667,877: 80 FD 63 
1719834667,877: 80 FD 4F 
1719834667,877: 80 FD 3F 
1719834667,877: 80 FD 2E 
1719834667,877: 80 FD 16 
1719834667,877: 80 FC F8 
1719834667,877: 80 FC DB 
1719834667,877: 80 FC C5 
1719834667,877: 80 FC B5 
1719834667,877: 80 FC A4 
1719834667,877: 80 FC 91 
1719834667,877: 80 FC 84 
1719834667,877: 80 FC 82 
1719834667,877: 80 FC 85 
1719834667,877: 80 FC 86 
1719834667,877: 80 FC 83 
1719834667,877: 80 FC 86 
1719834667,877: 80 FC 94 
1719834667,909: 80 FC A6 
1719834667,909: 80 FC B1 
1719834667,909: 80 FC B8 
1719834667,909: 80 FC CA 
1719834667,909: 80 FC F4 
1719834667,909: 80 FD 2D 
1719834667,909: 80 FD 60 
1719834667,909: 80 FD 83 
1719834667,909: 80 FD A1 
1719834667,909: 80 FD CC 
1719834667,909: 80 FE 0B 
1719834667,909: 80 FE 4D 
1719834667,909: 80 FE 84 
1719834667,909: 80 FE AD 
1719834667,909: 80 FE D5 
1719834667,939: 80 FF 05 
1719834667,939: 80 FF 3C 
1719834667,939: 80 FF 72 
1719834667,939: 80 FF A5 
1719834667,939: 80 FF D6 
1719834667,939: 80 00 05 
1719834667,939: 80 00 30 
1719834667,939: 80 00 56 
1719834667,939: 80 00 78 
1719834667,939: 80 00 9A 
1719834667,939: 80 00 B8 
1719834667,939: 80 00 CF 
1719834667,939: 80 00 E2 
1719834667,939: 80 00 F8 
1719834667,939: 80 01 13 
1719834667,970: 80 01 2E 
1719834667,970: 80 01 42 
1719834667,970: 80 01 4F 
1719834667,970: 80 01 5E 
1719834667,970: 80 01 72 
1719834667,970: 80 01 83 
1719834667,970: 80 01 8A 
1719834667,970: 80 01 8A 
1719834667,970: 80 01 8A 
1719834667,970: 80 01 91 
1719834667,970: 80 01 9B 
1719834667,970: 80 01 A2 
1719834667,970: 80 01 A9 
1719834667,970: 80 01 B2 
1719834667,970: 80 01 B7 
1719834668,001: 80 01 B1 
1719834668,001: 80 01 A4 
1719834668,001: 80 01 A0 
1719834668,001: 80 01 AB 
1719834668,001: 80 01 BB 
1719834668,001: 80 01 C1 
1719834668,001: 80 01 B9 
1719834668,001: 80 01 B3 
1719834668,001: 80 01 BE 
1719834668,001: 80 01 D3 
1719834668,001: 80 01 E1 
1719834668,001: 80 01 DF 
1719834668,001: 80 01 D3 
1719834668,001: 80 01 C8 
1719834668,001: 80 01 C4 
1719834668,033: 80 01 C5 
1719834668,033: 80 01 C4 
1719834668,033: 80 01 C1 
1719834668,033: 80 01 BA 
1719834668,033: 80 01 B2 
1719834668,033: 80 01 B0 
1719834668,033: 80 01 B6 
1719834668,033: 80 01 C2 
1719834668,033: 80 01 CB 
1719834668,033: 80 01 CB 
1719834668,033: 80 01 C5 
1719834668,033: 80 01 C1 
1719834668,033: 80 01 C0 
1719834668,033: 80 01 BE 
1719834668,033: 80 01 B8 
1719834668,064: 80 01 AF 
1719834668,064: 80 01 AA 
1719834668,064: 80 01 AA 
1719834668,064: 80 01 AA 
1719834668,064: 80 01 A4 
1719834668,064: 80 01 9B 
1719834668,064: 80 01 97 
1719834668,064: 80 01 99 
1719834668,064: 80 01 9C 
1719834668,064: 80 01 96 
1719834668,064: 80 01 88 
1719834668,064: 80 01 7B 
1719834668,064: 80 01 78 
1719834668,064: 80 01 7D 
1719834668,064: 80 01 7C 
1719834668,064: 80 01 74 
1719834668,064: 80 01 6D 
1719834668,064: 80 01 6F 
1719834668,064: 80 01 75 
1719834668,064: 80 01 72 
1719834668,064: 80 01 67 
1719834668,064: 80 01 61 
1719834668,094: 80 01 6B 
1719834668,094: 80 01 7B 
1719834668,094: 80 01 7B 
1719834668,094: 80 01 64 
1719834668,094: 80 01 4A 
1719834668,094: 80 01 42 
1719834668,094: 80 01 4C 
1719834668,094: 80 01 55 
1719834668,125: 80 01 4A 
1719834668,125: 80 01 2F 
1719834668,125: 80 01 19 
1719834668,125: 80 01 12 
1719834668,125: 80 01 14 
1719834668,125: 80 01 10 
1719834668,125: 80 01 03 
1719834668,125: 80 00 F4 
1719834668,125: 80 00 ED 
1719834668,125: 80 00 F0 
1719834668,125: 80 00 F6 
1719834668,125: 80 00 FA 
1719834668,125: 80 00 FC 
1719834668,125: 80 00 FB 
1719834668,125: 80 00 F7 
1719834668,156: 80 00 F2 
1719834668,156: 80 00 EF 
1719834668,156: 80 00 F2 
1719834668,156: 80 00 F8 
1719834668,156: 80 00 F9 
1719834668,156: 80 00 EF 
1719834668,156: 80 00 E1 
1719834668,156: 80 00 DC 
1719834668,156: 80 00 E4 
1719834668,156: 80 00 F0 
1719834668,156: 80 00 F4 
1719834668,156: 80 00 EB 
1719834668,156: 80 00 DE 
1719834668,156: 80 00 DA 
1719834668,156: 80 00 DF 
1719834668,156: 80 00 E7 
1719834668,156: 80 00 E6 
1719834668,156: 80 00 DE 
1719834668,156: 80 00 D7 
1719834668,156: 80 00 D5 
1719834668,156: 80 00 D6 
1719834668,156: 80 00 D4 
1719834668,188: 80 00 CE 
1719834668,188: 80 00 C9 
1719834668,188: 80 00 CB 
1719834668,188: 80 00 D3 
1719834668,188: 80 00 D8 
1719834668,188: 80 00 D5 
1719834668,188: 80 00 CF 
1719834668,188: 80 00 CE 
1719834668,188: 80 00 D5 
1719834668,188: 80 00 DE 
1719834668,188: 80 00 E2 
1719834668,188: 80 00 E6 
1719834668,188: 80 00 ED 
1719834668,188: 80 00 F4 
1719834668,188: 80 00 F4 
1719834668,220: 80 00 EE 
1719834668,220: 80 00 E8 
1719834668,220: 80 00 E9 
1719834668,220: 80 00 EF 
1719834668,220: 80 00 EF 
1719834668,220: 80 00 E6 
1719834668,220: 80 00 DC 
1719834668,220: 80 00 D8 
1719834668,220: 80 00 D5 
1719834668,220: 80 00 CD 
1719834668,220: 80 00 C5 
1719834668,220: 80 00 C6 
1719834668,220: 80 00 D5 
1719834668,220: 80 00 E2 
1719834668,220: 80 00 DF 
1719834668,252: 80 00 CE 
1719834668,252: 80 00 C4 
1719834668,252: 80 00 C9 
1719834668,252: 80 00 D5 
1719834668,252: 80 00 D1 
1719834668,252: 80 00 BA 
1719834668,252: 80 00 A1 
1719834668,252: 80 00 9A 
1719834668,252: 80 00 A0 
1719834668,252: 80 00 A3 
1719834668,252: 80 00 9C 
1719834668,252: 80 00 94 
1719834668,252: 80 00 9A 
1719834668,252: 80 00 B3 
1719834668,252: 80 00 D5 
1719834668,283: 80 00 F8 
1719834668,283: 80 01 19 
1719834668,283: 80 01 3B 
1719834668,283: 80 01 5B 
1719834668,283: 80 01 77 
1719834668,283: 80 01 90 
1719834668,283: 80 01 A9 
1719834668,283: 80 01 BD 
1719834668,283: 80 01 BE 
1719834668,283: 80 01 A8 
1719834668,283: 80 01 86 
1719834668,283: 80 01 6B 
1719834668,283: 80 01 60 
1719834668,283: 80 01 60 
1719834668,283: 80 01 5D 
1719834668,315: 80 01 50 
1719834668,315: 80 01 3F 
1719834668,315: 80 01 33 
1719834668,315: 80 01 2C 
1719834668,315: 80 01 29 
1719834668,315: 80 01 22 
1719834668,315: 80 01 13 
1719834668,315: 80 00 F6 
1719834668,315: 80 00 CF 
1719834668,315: 80 00 A9 
1719834668,315: 80 00 90 
1719834668,315: 80 00 86 
1719834668,315: 80 00 84 
1719834668,315: 80 00 83 
1719834668,315: 80 00 83 
1719834668,345: 80 00 8A 
1719834668,345: 80 00 99 
1719834668,345: 80 00 AA 
1719834668,345: 80 00 B7 
1719834668,345: 80 00 C0 
1719834668,345: 80 00 C7 
1719834668,345: 80 00 CD 
1719834668,345: 80 00 CD 
1719834668,345: 80 00 C8 
1719834668,345: 80 00 C3 
1719834668,345: 80 00 BE 
1719834668,345: 80 00 B8 
1719834668,345: 80 00 AA 
1719834668,345: 80 00 9C 
1719834668,345: 80 00 98 
1719834668,376: 80 00 A0 
1719834668,376: 80 00 A8 
1719834668,376: 80 00 A5 
1719834668,376: 80 00 97 
1719834668,376: 80 00 8C 
1719834668,376: 80 00 8F 
1719834668,376: 80 00 9C 
1719834668,376: 80 00 A5 
1719834668,376: 80 00 A0 
1719834668,376: 80 00 99 
1719834668,376: 80 00 A6 
1719834668,376: 80 00 CE 
1719834668,376: 80 01 08 
1719834668,376: 80 01 3F 
1719834668,376: 80 01 61 
1719834668,376: 80 01 62 
1719834668,376: 80 01 4A 
1719834668,376: 80 01 33 
1719834668,376: 80 01 23 
1719834668,376: 80 00 F7 
1719834668,376: 80 00 7A 
1719834668,406: 02 C8 
1719834668,406: 80 FF A1 
1719834668,406: 80 FE B8 
1719834668,406: 80 FE 40 
1719834668,406: 80 FE 98 
1719834668,406: 80 FF D9 
1719834668,406: 80 02 0E 
1719834668,406: 80 05 7B 
1719834668,406: 80 0A 7B 
1719834668,406: 80 10 F1 
1719834668,406: 80 17 FB 
1719834668,406: 86 02 E2 
1719834668,406: 03 51 
1719834668,406: 80 1E 6A 
1719834668,406: 80 23 9B 
1719834668,406: 80 27 B7 
1719834668,406: 80 2A F7 
1719834668,437: 80 2C B9 
1719834668,437: 80 2B 94 
1719834668,437: 80 26 A7 
1719834668,437: 80 1E C1 
1719834668,437: 80 16 1B 
1719834668,437: 80 0E BC 
1719834668,437: 80 09 19 
1719834668,437: 80 04 4C 
1719834668,437: 80 FF 8E 
1719834668,437: 80 FB 52 
1719834668,437: 80 F8 DB 
1719834668,437: 80 F8 E8 
1719834668,437: 80 FA D9 
1719834668,437: 80 FD 35 
1719834668,437: 80 FE BF 
1719834668,469: 80 FF 29 
1719834668,469: 80 FE E0 
1719834668,469: 80 FE 67 
1719834668,469: 80 FD EE 
1719834668,469: 80 FD 64 
1719834668,469: 80 FC B8 
1719834668,469: 80 FB F7 
1719834668,469: 80 FB 3F 
1719834668,469: 80 FA A6 
1719834668,469: 80 FA 3C 
1719834668,469: 80 FA 02 
1719834668,469: 80 F9 EF 
1719834668,469: 80 F9 F7 
1719834668,469: 80 FA 0D 
1719834668,469: 80 FA 1B 
1719834668,500: 80 FA 12 
1719834668,500: 80 F9 F2 
1719834668,500: 80 F9 D1 
1719834668,500: 80 F9 CB 
1719834668,500: 80 F9 F1 
1719834668,500: 80 FA 38 
1719834668,500: 80 FA 88 
1719834668,500: 80 FA C9 
1719834668,500: 80 FA EE 
1719834668,500: 80 FA F5 
1719834668,500: 80 FA E8 
1719834668,500: 80 FA D7 
1719834668,500: 80 FA D5 
1719834668,500: 80 FA E9 
1719834668,500: 80 FB 0D 
1719834668,530: 80 FB 30 
1719834668,530: 80 FB 4A 
1719834668,530: 80 FB 64 
1719834668,530: 80 FB 84 
1719834668,530: 80 FB A4 
1719834668,530: 80 FB B1 
1719834668,530: 80 FB A8 
1719834668,530: 80 FB 9F 
1719834668,530: 80 FB B3 
1719834668,530: 80 FB EA 
1719834668,530: 80 FC 28 
1719834668,530: 80 FC 4E 
1719834668,530: 80 FC 5B 
1719834668,530: 80 FC 65 
1719834668,530: 80 FC 80 
1719834668,530: 80 FC A6 
1719834668,530: 80 FC C3 
1719834668,530: 80 FC D3 
1719834668,530: 80 FC DF 
1719834668,530: 80 FC F1 
1719834668,530: 80 FD 07 
1719834668,530: 80 FD 18 
1719834668,530: 80 FD 21 
1719834668,561: 80 FD 29 
1719834668,561: 80 FD 35 
1719834668,561: 80 FD 42 
1719834668,561: 80 FD 4A 
1719834668,561: 80 FD 4D 
1719834668,561: 80 FD 52 
1719834668,561: 80 FD 5A 
1719834668,561: 80 FD 64 
1719834668,561: 80 FD 6C 
1719834668,561: 80 FD 72 
1719834668,561: 80 FD 79 
1719834668,561: 80 FD 7F 
1719834668,561: 80 FD 82 
1719834668,561: 80 FD 81 
1719834668,561: 80 FD 7D 
1719834668,593: 80 FD 79 
1719834668,593: 80 FD 73 
1719834668,593: 80 FD 6B 
1719834668,593: 80 FD 63 
1719834668,593: 80 FD 5C 
1719834668,593: 80 FD 58 
1719834668,593: 80 FD 53 
1719834668,593: 80 FD 4C 
1719834668,593: 80 FD 43 
1719834668,593: 80 FD 3A 
1719834668,593: 80 FD 34 
1719834668,593: 80 FD 2E 
1719834668,593: 80 FD 24 
1719834668,593: 80 FD 10 
1719834668,593: 80 FC F0 
1719834668,624: 80 FC CB 
1719834668,624: 80 FC AF 
1719834668,624: 80 FC A1 
1719834668,624: 80 FC 9C 
1719834668,624: 80 FC 90 
1719834668,624: 80 FC 76 
1719834668,624: 80 FC 5B 
1719834668,655: 80 FC 4F 
1719834668,655: 80 FC 59 
1719834668,655: 80 FC 6C 
1719834668,655: 80 FC 78 
1719834668,655: 80 FC 7A 
1719834668,655: 80 FC 78 
1719834668,655: 80 FC 7D 
1719834668,655: 80 FC 8C 
1719834668,655: 80 FC A5 
1719834668,655: 80 FC C6 
1719834668,655: 80 FC EF 
1719834668,655: 80 FD 1C 
1719834668,655: 80 FD 49 
1719834668,655: 80 FD 75 
1719834668,655: 80 FD A1 
1719834668,655: 80 FD D3 
1719834668,655: 80 FE 08 
1719834668,655: 80 FE 3F 
1719834668,655: 80 FE 72 
1719834668,655: 80 FE 9D 
1719834668,655: 80 FE C1 
1719834668,655: 80 FE E2 
1719834668,655: 80 FF 0A 
1719834668,686: 80 FF 3E 
1719834668,686: 80 FF 79 
1719834668,686: 80 FF AE 
1719834668,686: 80 FF D5 
1719834668,686: 80 FF F3 
1719834668,686: 80 00 12 
1719834668,686: 80 00 3A 
1719834668,686: 80 00 65 
1719834668,686: 80 00 88 
1719834668,686: 80 00 9C 
1719834668,686: 80 00 A8 
1719834668,686: 80 00 B4 
1719834668,686: 80 00 C5 
1719834668,686: 80 00 DA 
1719834668,686: 80 00 F0 
1719834668,717: 80 01 04 
1719834668,717: 80 01 12 
1719834668,717: 80 01 1A 
1719834668,717: 80 01 21 
1719834668,717: 80 01 32 
1719834668,717: 80 01 4B 
1719834668,717: 80 01 62 
1719834668,717: 80 01 69 
1719834668,717: 80 01 5F 
1719834668,717: 80 01 53 
1719834668,717: 80 01 56 
1719834668,717: 80 01 6A 
1719834668,717: 80 01 80 
1719834668,717: 80 01 8B 
1719834668,717: 80 01 8C 
1719834668,747: 80 01 8B 
1719834668,747: 80 01 91 
1719834668,747: 80 01 9D 
1719834668,747: 80 01 A7 
1719834668,747: 80 01 AC 
1719834668,747: 80 01 AB 
1719834668,747: 80 01 A8 
1719834668,747: 80 01 A7 
1719834668,747: 80 01 A6 
1719834668,747: 80 01 A6 
1719834668,747: 80 01 A5 
1719834668,747: 80 01 A4 
1719834668,747: 80 01 A6 
1719834668,747: 80 01 AD 
1719834668,747: 80 01 B5 
1719834668,779: 80 01 B8 
1719834668,779: 80 01 B4 
1719834668,779: 80 01 AD 
1719834668,779: 80 01 AC 
1719834668,779: 80 01 B6 
1719834668,779: 80 01 C3 
1719834668,779: 80 01 C8 
1719834668,779: 80 01 C2 
1719834668,779: 80 01 B7 
1719834668,779: 80 01 B1 
1719834668,779: 80 01 B2 
1719834668,779: 80 01 B8 
1719834668,779: 80 01 BB 
1719834668,779: 80 01 B6 
1719834668,779: 80 01 A9 
1719834668,810: 80 01 9A 
1719834668,810: 80 01 91 
1719834668,810: 80 01 91 
1719834668,810: 80 01 91 
1719834668,810: 80 01 86 
1719834668,810: 80 01 75 
1719834668,810: 80 01 6B 
1719834668,810: 80 01 71 
1719834668,810: 80 01 7E 
1719834668,810: 80 01 7C 
1719834668,810: 80 01 65 
1719834668,810: 80 01 4A 
1719834668,810: 80 01 3F 
1719834668,810: 80 01 42 
1719834668,810: 80 01 42 
1719834668,842: 80 01 32 
1719834668,842: 80 01 18 
1719834668,842: 80 01 03 
1719834668,842: 80 00 FA 
1719834668,842: 80 00 F5 
1719834668,842: 80 00 EB 
1719834668,842: 80 00 DE 
1719834668,842: 80 00 D3 
1719834668,842: 80 00 CC 
1719834668,842: 80 00 C7 
1719834668,842: 80 00 C2 
1719834668,842: 80 00 C2 
1719834668,842: 80 00 C6 
1719834668,842: 80 00 C9 
1719834668,842: 80 00 C6 
1719834668,842: 80 00 C0 
1719834668,842: 80 00 C0 
1719834668,842: 80 00 C7 
1719834668,842: 80 00 D0 
1719834668,842: 80 00 D2 
1719834668,842: 80 00 CD 
1719834668,842: 80 00 C7 
1719834668,873: 80 00 C6 
1719834668,873: 80 00 C6 
1719834668,873: 80 00 C2 
1719834668,873: 80 00 BA 
1719834668,873: 80 00 B6 
1719834668,873: 80 00 B8 
1719834668,873: 80 00 BB 
1719834668,873: 80 00 B4 
1719834668,904: 80 00 A6 
1719834668,904: 80 00 A0 
1719834668,904: 80 00 AA 
1719834668,904: 80 00 BB 
1719834668,904: 80 00 C2 
1719834668,904: 80 00 B6 
1719834668,904: 80 00 A5 
1719834668,904: 80 00 9E 
1719834668,904: 80 00 A6 
1719834668,904: 80 00 B2 
1719834668,904: 80 00 B3 
1719834668,904: 80 00 A7 
1719834668,904: 80 00 9A 
1719834668,904: 80 00 95 
1719834668,904: 80 00 9B 
1719834668,904: 80 00 A5 
1719834668,904: 80 00 A9 
1719834668,904: 80 00 A4 
1719834668,904: 80 00 9B 
1719834668,904: 80 00 94 
1719834668,904: 80 00 92 
1719834668,904: 80 00 91 
1719834668,936: 80 00 8B 
1719834668,936: 80 00 82 
1719834668,936: 80 00 7A 
1719834668,936: 80 00 77 
1719834668,936: 80 00 78 
1719834668,936: 80 00 74 
1719834668,936: 80 00 6C 
1719834668,936: 80 00 64 
1719834668,936: 80 00 64 
1719834668,936: 80 00 68 
1719834668,936: 80 00 6C 
1719834668,936: 80 00 6B 
1719834668,936: 80 00 68 
1719834668,936: 80 00 68 
1719834668,936: 80 00 6C 
1719834668,967: 80 00 73 
1719834668,967: 80 00 76 
1719834668,967: 80 00 74 
1719834668,967: 80 00 6F 
1719834668,967: 80 00 6C 
1719834668,967: 80 00 6D 
1719834668,967: 80 00 6E 
1719834668,967: 80 00 65 
1719834668,967: 80 00 51 
1719834668,967: 80 00 3C 
1719834668,967: 80 00 36 
1719834668,967: 80 00 44 
1719834668,967: 80 00 58 
1719834668,967: 80 00 5E 
1719834668,967: 80 00 54 
1719834668,998: 80 00 4B 
1719834668,998: 80 00 53 
1719834668,998: 80 00 62 
1719834668,998: 80 00 65 
1719834668,998: 80 00 54 
1719834668,998: 80 00 3A 
1719834668,998: 80 00 26 
1719834668,998: 80 00 1A 
1719834668,998: 80 00 13 
1719834668,998: 80 00 15 
1719834668,998: 80 00 27 
1719834668,998: 80 00 4C 
1719834668,998: 80 00 77 
1719834668,998: 80 00 9E 
1719834668,998: 80 00 C3 
1719834669,028: 80 00 EB 
1719834669,028: 80 01 10 
1719834669,028: 80 01 27 
1719834669,028: 80 01 2B 
1719834669,028: 80 01 23 
1719834669,028: 80 01 16 
1719834669,028: 80 01 02 
1719834669,028: 80 00 E3 
1719834669,028: 80 00 C0 
1719834669,028: 80 00 AA 
1719834669,028: 80 00 A8 
1719834669,028: 80 00 B1 
1719834669,028: 80 00 B1 
1719834669,028: 80 00 A6 
1719834669,028: 80 00 99 
1719834669,059: 80 00 95 
1719834669,059: 80 00 97 
1719834669,059: 80 00 90 
1719834669,059: 80 00 7A 
1719834669,059: 80 00 5B 
1719834669,059: 80 00 3E 
1719834669,059: 80 00 2A 
1719834669,059: 80 00 1D 
1719834669,059: 80 00 15 
1719834669,059: 80 00 12 
1719834669,059: 80 00 12 
1719834669,059: 80 00 16 
1719834669,059: 80 00 1C 
1719834669,059: 80 00 26 
1719834669,059: 80 00 31 
1719834669,091: 80 00 36 
1719834669,091: 80 00 2F 
1719834669,091: 80 00 27 
1719834669,091: 80 00 28 
1719834669,091: 80 00 37 
1719834669,091: 80 00 47 
1719834669,091: 80 00 4A 
1719834669,091: 80 00 41 
1719834669,091: 80 00 3F 
1719834669,091: 80 00 4C 
1719834669,091: 80 00 62 
1719834669,091: 80 00 6C 
1719834669,091: 80 00 62 
1719834669,091: 80 00 4F 
1719834669,091: 80 00 44 
1719834669,091: 80 00 45 
1719834669,091: 80 00 46 
1719834669,091: 80 00 3F 
1719834669,091: 80 00 36 
1719834669,091: 80 00 36 
1719834669,091: 80 00 3F 
1719834669,091: 80 00 4F 
1719834669,091: 80 00 69 
1719834669,122: 80 00 8E 
1719834669,122: 80 00 BF 
1719834669,122: 80 00 F3 
1719834669,122: 80 01 18 
1719834669,122: 80 01 19 
1719834669,122: 80 00 FC 
1719834669,122: 80 00 DD 
1719834669,154: 80 00 D0 
1719834669,154: 80 00 B7 
1719834669,154: 80 00 54 
1719834669,154: 80 FF 8F 
1719834669,154: 80 FE A7 
1719834669,154: 80 FE 23 
1719834669,154: 80 FE 70 
1719834669,154: 80 FF A6 
1719834669,154: 80 01 C2 
1719834669,154: 80 05 03 
1719834669,154: 80 09 D4 
1719834669,154: 80 10 30 
1719834669,154: 80 17 43 
1719834669,154: 86 02 E0 
1719834669,154: 03 52 
1719834669,154: 80 1D CE 
1719834669,154: 80 23 13 
1719834669,185: 80 27 3A 
1719834669,185: 80 2A 99 
1719834669,185: 80 2C A1 
1719834669,185: 80 2B DD 
1719834669,185: 80 27 3A 
1719834669,185: 80 1F 5E 
1719834669,185: 80 16 87 
1719834669,185: 80 0E E3 
1719834669,185: 80 09 11 
1719834669,185: 80 04 33 
1719834669,185: 80 FF 68 
1719834669,185: 80 FB 03 
1719834669,185: 80 F8 49 
1719834669,185: 80 F8 15 
1719834669,185: 80 F9 EE 
1719834669,217: 80 FC 63 
1719834669,217: 80 FE 24 
1719834669,217: 80 FE BD 
1719834669,217: 80 FE 8B 
1719834669,217: 80 FE 16 
1719834669,217: 80 FD A4 
1719834669,217: 80 FD 2E 
1719834669,217: 80 FC 9E 
1719834669,217: 80 FB F0 
1719834669,217: 80 FB 39 
1719834669,217: 80 FA 90 
1719834669,217: 80 FA 13 
1719834669,217: 80 F9 CF 
1719834669,217: 80 F9 BE 
1719834669,217: 80 F9 CC 
1719834669,217: 80 F9 E2 
1719834669,217: 80 F9 E9 
1719834669,217: 80 F9 D8 
1719834669,217: 80 F9 BA 
1719834669,217: 80 F9 A2 
1719834669,217: 80 F9 A3 
1719834669,217: 80 F9 C5 
1719834669,217: 80 FA 00 
1719834669,247: 80 FA 42 
1719834669,247: 80 FA 79 
1719834669,247: 80 FA 98 
1719834669,247: 80 FA 9C 
1719834669,247: 80 FA 8F 
1719834669,247: 80 FA 7A 
1719834669,247: 80 FA 6D 
1719834669,247: 80 FA 73 
1719834669,247: 80 FA 95 
1719834669,247: 80 FA D0 
1719834669,247: 80 FB 15 
1719834669,247: 80 FB 4E 
1719834669,247: 80 FB 6E 
1719834669,247: 80 FB 76 
1719834669,247: 80 FB 77 
1719834669,277: 80 FB 7E 
1719834669,277: 80 FB 95 
1719834669,277: 80 FB B7 
1719834669,277: 80 FB DB 
1719834669,277: 80 FB FA 
1719834669,277: 80 FC 12 
1719834669,277: 80 FC 28 
1719834669,277: 80 FC 3E 
1719834669,277: 80 FC 53 
1719834669,277: 80 FC 64 
1719834669,277: 80 FC 70 
1719834669,277: 80 FC 7B 
1719834669,277: 80 FC 8B 
1719834669,277: 80 FC A1 
1719834669,277: 80 FC BC 
1719834669,308: 80 FC D8 
1719834669,308: 80 FC F0 
1719834669,308: 80 FD 00 
1719834669,308: 80 FD 09 
1719834669,308: 80 FD 12 
1719834669,308: 80 FD 20 
1719834669,308: 80 FD 31 
1719834669,308: 80 FD 3A 
1719834669,308: 80 FD 36 
1719834669,308: 80 FD 2D 
1719834669,308: 80 FD 2C 
1719834669,308: 80 FD 38 
1719834669,308: 80 FD 4A 
1719834669,308: 80 FD 53 
1719834669,308: 80 FD 4F 
1719834669,338: 80 FD 45 
1719834669,338: 80 FD 40 
1719834669,338: 80 FD 45 
1719834669,338: 80 FD 4D 
1719834669,338: 80 FD 4C 
1719834669,338: 80 FD 39 
1719834669,338: 80 FD 1C 
1719834669,338: 80 FD 04 
1719834669,338: 80 FC FA 
1719834669,338: 80 FC F5 
1719834669,338: 80 FC E6 
1719834669,338: 80 FC C9 
1719834669,338: 80 FC AA 
1719834669,338: 80 FC 97 
1719834669,338: 80 FC 90 
1719834669,369: 80 FC 89 
1719834669,369: 80 FC 79 
1719834669,369: 80 FC 64 
1719834669,369: 80 FC 53 
1719834669,369: 80 FC 49 
1719834669,369: 80 FC 41 
1719834669,369: 80 FC 36 
1719834669,369: 80 FC 28 
1719834669,369: 80 FC 19 
1719834669,369: 80 FC 0C 
1719834669,369: 80 FC 03 
1719834669,369: 80 FB FF 
1719834669,369: 80 FC 02 
1719834669,369: 80 FC 09 
1719834669,369: 80 FC 12 
1719834669,369: 80 FC 1D 
1719834669,369: 80 FC 30 
1719834669,369: 80 FC 49 
1719834669,369: 80 FC 66 
1719834669,369: 80 FC 85 
1719834669,369: 80 FC AB 
1719834669,369: 80 FC DB 
1719834669,400: 80 FD 12 
1719834669,400: 80 FD 49 
1719834669,400: 80 FD 7B 
1719834669,400: 02 C8 
1719834669,400: 80 FD AA 
1719834669,400: 80 FD DE 
1719834669,431: 80 FE 1A 
1719834669,431: 80 FE 58 
1719834669,431: 80 FE 91 
1719834669,431: 80 FE C1 
1719834669,431: 80 FE E9 
1719834669,431: 80 FF 12 
1719834669,431: 80 FF 3E 
1719834669,431: 80 FF 69 
1719834669,431: 80 FF 8F 
1719834669,431: 80 FF B0 
1719834669,431: 80 FF D6 
1719834669,431: 80 00 06 
1719834669,431: 80 00 39 
1719834669,431: 80 00 60 
1719834669,431: 80 00 75 
1719834669,431: 80 00 84 
1719834669,431: 80 00 9C 
1719834669,431: 80 00 BF 
1719834669,431: 80 00 DC 
1719834669,431: 80 00 E4 
1719834669,431: 80 00 DC 
1719834669,431: 80 00 D8 
1719834669,462: 80 00 E3 
1719834669,462: 80 00 F9 
1719834669,462: 80 01 0D 
1719834669,462: 80 01 1B 
1719834669,462: 80 01 26 
1719834669,462: 80 01 36 
1719834669,462: 80 01 48 
1719834669,462: 80 01 58 
1719834669,462: 80 01 63 
1719834669,462: 80 01 6B 
1719834669,462: 80 01 73 
1719834669,462: 80 01 79 
1719834669,462: 80 01 79 
1719834669,462: 80 01 74 
1719834669,462: 80 01 6B 
1719834669,493: 80 01 65 
1719834669,493: 80 01 64 
1719834669,493: 80 01 66 
1719834669,493: 80 01 69 
1719834669,493: 80 01 69 
1719834669,493: 80 01 67 
1719834669,493: 80 01 66 
1719834669,493: 80 01 68 
1719834669,493: 80 01 67 
1719834669,493: 80 01 63 
1719834669,493: 80 01 5C 
1719834669,493: 80 01 57 
1719834669,493: 80 01 58 
1719834669,493: 80 01 5C 
1719834669,493: 80 01 5D 
1719834669,524: 80 01 57 
1719834669,524: 80 01 50 
1719834669,524: 80 01 4E 
1719834669,524: 80 01 53 
1719834669,524: 80 01 5C 
1719834669,524: 80 01 5F 
1719834669,524: 80 01 5C 
1719834669,524: 80 01 5A 
1719834669,524: 80 01 5F 
1719834669,524: 80 01 6A 
1719834669,524: 80 01 74 
1719834669,524: 80 01 73 
1719834669,524: 80 01 6B 
1719834669,524: 80 01 65 
1719834669,524: 80 01 6A 
1719834669,555: 80 01 74 
1719834669,555: 80 01 74 
1719834669,555: 80 01 66 
1719834669,555: 80 01 51 
1719834669,555: 80 01 44 
1719834669,555: 80 01 44 
1719834669,555: 80 01 48 
1719834669,555: 80 01 42 
1719834669,555: 80 01 32 
1719834669,555: 80 01 1F 
1719834669,555: 80 01 12 
1719834669,555: 80 01 0E 
1719834669,555: 80 01 0E 
1719834669,555: 80 01 0A 
1719834669,555: 80 01 02 
1719834669,586: 80 00 FA 
1719834669,586: 80 00 F7 
1719834669,586: 80 00 FB 
1719834669,586: 80 01 01 
1719834669,586: 80 01 01 
1719834669,586: 80 00 F9 
1719834669,586: 80 00 EC 
1719834669,586: 80 00 E3 
1719834669,586: 80 00 DE 
1719834669,586: 80 00 D7 
1719834669,586: 80 00 C7 
1719834669,586: 80 00 B3 
1719834669,586: 80 00 A8 
1719834669,586: 80 00 A9 
1719834669,586: 80 00 AF 
1719834669,617: 80 00 AC 
1719834669,617: 80 00 A2 
1719834669,617: 80 00 9D 
1719834669,617: 80 00 A4 
1719834669,617: 80 00 AD 
1719834669,617: 80 00 A9 
1719834669,617: 80 00 98 
1719834669,617: 80 00 89 
1719834669,617: 80 00 89 
1719834669,617: 80 00 94 
1719834669,617: 80 00 9A 
1719834669,617: 80 00 93 
1719834669,617: 80 00 8C 
1719834669,617: 80 00 91 
1719834669,617: 80 00 A1 
1719834669,647: 80 00 AB 
1719834669,647: 80 00 A4 
1719834669,647: 80 00 94 
1719834669,647: 80 00 87 
1719834669,647: 80 00 82 
1719834669,647: 80 00 81 
1719834669,647: 80 00 7E 
1719834669,647: 80 00 79 
1719834669,647: 80 00 72 
1719834669,647: 80 00 6B 
1719834669,647: 80 00 65 
1719834669,647: 80 00 65 
1719834669,647: 80 00 6F 
1719834669,647: 80 00 7C 
1719834669,647: 80 00 82 
1719834669,679: 80 00 7B 
1719834669,679: 80 00 6E 
1719834669,679: 80 00 66 
1719834669,679: 80 00 69 
1719834669,679: 80 00 6F 
1719834669,679: 80 00 6C 
1719834669,679: 80 00 5F 
1719834669,679: 80 00 50 
1719834669,679: 80 00 4B 
1719834669,679: 80 00 53 
1719834669,679: 80 00 60 
1719834669,679: 80 00 66 
1719834669,679: 80 00 61 
1719834669,679: 80 00 5A 
1719834669,679: 80 00 5C 
1719834669,711: 80 00 67 
1719834669,711: 80 00 6E 
1719834669,711: 80 00 69 
1719834669,711: 80 00 5E 
1719834669,711: 80 00 5A 
1719834669,711: 80 00 62 
1719834669,711: 80 00 6B 
1719834669,711: 80 00 68 
1719834669,711: 80 00 5C 
1719834669,711: 80 00 57 
1719834669,711: 80 00 5F 
1719834669,711: 80 00 69 
1719834669,711: 80 00 61 
1719834669,711: 80 00 48 
1719834669,711: 80 00 32 
1719834669,711: 80 00 2E 
1719834669,711: 80 00 35 
1719834669,711: 80 00 31 
1719834669,711: 80 00 1A 
1719834669,711: 80 00 00 
1719834669,711: 80 FF FD 
1719834669,711: 80 00 16 
1719834669,711: 80 00 3D 
1719834669,743: 80 00 60 
1719834669,743: 80 00 7E 
1719834669,743: 80 00 9E 
1719834669,743: 80 00 C8 
1719834669,743: 80 00 F4 
1719834669,743: 80 01 17 
1719834669,743: 80 01 2C 
1719834669,743: 80 01 39 
1719834669,743: 80 01 3E 
1719834669,743: 80 01 38 
1719834669,743: 80 01 24 
1719834669,743: 80 01 05 
1719834669,743: 80 00 E5 
1719834669,743: 80 00 CF 
1719834669,743: 80 00 C3 
1719834669,773: 80 00 B8 
1719834669,773: 80 00 A7 
1719834669,773: 80 00 94 
1719834669,773: 80 00 87 
1719834669,773: 80 00 82 
1719834669,773: 80 00 7B 
1719834669,773: 80 00 67 
1719834669,773: 80 00 4B 
1719834669,773: 80 00 34 
1719834669,773: 80 00 2B 
1719834669,773: 80 00 28 
1719834669,773: 80 00 20 
1719834669,773: 80 00 14 
1719834669,773: 80 00 0E 
1719834669,773: 80 00 14 
1719834669,805: 80 00 1D 
1719834669,805: 80 00 1F 
1719834669,805: 80 00 1A 
1719834669,805: 80 00 1E 
1719834669,805: 80 00 2C 
1719834669,805: 80 00 38 
1719834669,805: 80 00 35 
1719834669,805: 80 00 25 
1719834669,805: 80 00 1B 
1719834669,805: 80 00 24 
1719834669,805: 80 00 38 
1719834669,805: 80 00 43 
1719834669,805: 80 00 3C 
1719834669,805: 80 00 2C 
1719834669,805: 80 00 23 
1719834669,837: 80 00 28 
1719834669,837: 80 00 32 
1719834669,837: 80 00 37 
1719834669,837: 80 00 38 
1719834669,837: 80 00 3A 
1719834669,837: 80 00 40 
1719834669,837: 80 00 48 
1719834669,837: 80 00 4F 
1719834669,837: 80 00 58 
1719834669,837: 80 00 60 
1719834669,837: 80 00 6C 
1719834669,837: 80 00 81 
1719834669,837: 80 00 A0 
1719834669,837: 80 00 C6 
1719834669,837: 80 00 E7 
1719834669,868: 80 00 F5 
1719834669,868: 80 00 EC 
1719834669,868: 80 00 D9 
1719834669,868: 80 00 D6 
1719834669,868: 80 00 E3 
1719834669,868: 80 00 D1 
1719834669,868: 80 00 72 
1719834669,868: 80 FF CD 
1719834669,868: 80 FF 34 
1719834669,868: 80 FF 19 
1719834669,868: 80 FF B7 
1719834669,868: 80 00 FE 
1719834669,868: 80 02 F8 
1719834669,868: 80 06 0D 
1719834669,868: 80 0A A9 
1719834669,900: 80 10 83 
1719834669,900: 80 16 6D 
1719834669,900: 86 02 D1 
1719834669,900: 03 53 
1719834669,900: 80 1B 2D 
1719834669,900: 80 1E 97 
1719834669,900: 80 21 78 
1719834669,900: 80 24 3B 
1719834669,900: 80 25 C1 
1719834669,900: 80 24 11 
1719834669,900: 80 1E 5A 
1719834669,900: 80 16 22 
1719834669,900: 80 0E 30 
1719834669,900: 80 08 42 
1719834669,900: 80 03 ED 
1719834669,900: 80 FF CA 
1719834669,900: 80 FB 58 
1719834669,931: 80 F7 99 
1719834669,931: 80 F5 F8 
1719834669,931: 80 F6 CF 
1719834669,931: 80 F9 29 
1719834669,931: 80 FB A4 
1719834669,931: 80 FD 60 
1719834669,931: 80 FE 33 
1719834669,931: 80 FE 5F 
1719834669,931: 80 FE 38 
1719834669,931: 80 FE 01 
1719834669,931: 80 FD E0 
1719834669,931: 80 FD CD 
1719834669,931: 80 FD 9E 
1719834669,931: 80 FD 2D 
1719834669,931: 80 FC 8C 
1719834669,931: 80 FC 00 
1719834669,931: 80 FB C2 
1719834669,931: 80 FB CE 
1719834669,931: 80 FB F5 
1719834669,931: 80 FC 03 
1719834669,931: 80 FB E4 
1719834669,931: 80 FB AE 
1719834669,962: 80 FB 7F 
1719834669,962: 80 FB 69 
1719834669,962: 80 FB 71 
1719834669,962: 80 FB 96 
1719834669,962: 80 FB D5 
1719834669,962: 80 FC 26 
1719834669,962: 80 FC 6F 
1719834669,962: 80 FC 98 
1719834669,995: 80 FC 9A 
1719834669,995: 80 FC 81 
1719834669,995: 80 FC 66 
1719834669,995: 80 FC 59 
1719834669,995: 80 FC 62 
1719834669,995: 80 FC 80 
1719834669,995: 80 FC AF 
1719834669,995: 80 FC E8 
1719834669,995: 80 FD 1D 
1719834669,995: 80 FD 43 
1719834669,995: 80 FD 58 
1719834669,995: 80 FD 62 
1719834669,995: 80 FD 6A 
1719834669,995: 80 FD 77 
1719834669,995: 80 FD 89 
1719834669,995: 80 FD A3 
1719834669,995: 80 FD C3 
1719834669,995: 80 FD E7 
1719834669,995: 80 FE 03 
1719834669,995: 80 FE 11 
1719834669,995: 80 FE 14 
1719834669,995: 80 FE 1C 
1719834670,024: 80 FE 34 
1719834670,024: 80 FE 5A 
1719834670,024: 80 FE 7F 
1719834670,024: 80 FE 96 
1719834670,024: 80 FE A0 
1719834670,024: 80 FE AA 
1719834670,024: 80 FE BB 
1719834670,024: 80 FE D0 
1719834670,024: 80 FE DD 
1719834670,024: 80 FE DF 
1719834670,024: 80 FE DD 
1719834670,024: 80 FE DE 
1719834670,024: 80 FE E5 
1719834670,024: 80 FE ED 
1719834670,024: 80 FE F4 
1719834670,055: 80 FE F8 
1719834670,055: 80 FE FC 
1719834670,055: 80 FE FB 
1719834670,055: 80 FE F4 
1719834670,055: 80 FE E9 
1719834670,055: 80 FE E0 
1719834670,055: 80 FE DB 
1719834670,055: 80 FE D7 
1719834670,055: 80 FE D0 
1719834670,055: 80 FE C7 
1719834670,055: 80 FE BD 
1719834670,055: 80 FE B2 
1719834670,055: 80 FE A3 
1719834670,055: 80 FE 8C 
1719834670,055: 80 FE 6E 
1719834670,087: 80 FE 4D 
1719834670,087: 80 FE 2B 
1719834670,087: 80 FE 0C 
1719834670,087: 80 FD ED 
1719834670,087: 80 FD CA 
1719834670,087: 80 FD A1 
1719834670,087: 80 FD 75 
1719834670,087: 80 FD 4D 
1719834670,087: 80 FD 2F 
1719834670,087: 80 FD 18 
1719834670,087: 80 FC FF 
1719834670,087: 80 FC DF 
1719834670,087: 80 FC B8 
1719834670,087: 80 FC 94 
1719834670,087: 80 FC 7D 
1719834670,119: 80 FC 79 
1719834670,119: 80 FC 7F 
1719834670,119: 80 FC 82 
1719834670,119: 80 FC 78 
1719834670,119: 80 FC 6A 
1719834670,119: 80 FC 67 
1719834670,119: 80 FC 78 
1719834670,119: 80 FC 96 
1719834670,119: 80 FC B0 
1719834670,119: 80 FC C0 
1719834670,119: 80 FC CD 
1719834670,119: 80 FC E1 
1719834670,119: 80 FD 05 
1719834670,119: 80 FD 33 
1719834670,119: 80 FD 61 
1719834670,151: 80 FD 89 
1719834670,151: 80 FD AA 
1719834670,151: 80 FD C9 
1719834670,151: 80 FD EE 
1719834670,151: 80 FE 18 
1719834670,151: 80 FE 44 
1719834670,151: 80 FE 6E 
1719834670,151: 80 FE 93 
1719834670,151: 80 FE B6 
1719834670,151: 80 FE D7 
1719834670,151: 80 FE F6 
1719834670,151: 80 FF 17 
1719834670,151: 80 FF 38 
1719834670,151: 80 FF 5A 
1719834670,151: 80 FF 7A 
1719834670,151: 80 FF 92 
1719834670,151: 80 FF A7 
1719834670,151: 80 FF BE 
1719834670,151: 80 FF DD 
1719834670,151: 80 FF FC 
1719834670,151: 80 00 13 
1719834670,151: 80 00 22 
1719834670,151: 80 00 2F 
1719834670,182: 80 00 40 
1719834670,182: 80 00 4F 
1719834670,182: 80 00 57 
1719834670,182: 80 00 58 
1719834670,182: 80 00 5A 
1719834670,182: 80 00 63 
1719834670,182: 80 00 71 
1719834670,214: 80 00 83 
1719834670,214: 80 00 9B 
1719834670,214: 80 00 B9 
1719834670,214: 80 00 D2 
1719834670,214: 80 00 DC 
1719834670,214: 80 00 DC 
1719834670,214: 80 00 E2 
1719834670,214: 80 00 F2 
1719834670,214: 80 01 03 
1719834670,214: 80 01 05 
1719834670,214: 80 00 F8 
1719834670,214: 80 00 EB 
1719834670,214: 80 00 EA 
1719834670,214: 80 00 F2 
1719834670,214: 80 00 FC 
1719834670,214: 80 01 02 
1719834670,214: 80 01 03 
1719834670,214: 80 00 FE 
1719834670,214: 80 00 F2 
1719834670,214: 80 00 E4 
1719834670,214: 80 00 DE 
1719834670,214: 80 00 E0 
1719834670,214: 80 00 E1 
1719834670,245: 80 00 DB 
1719834670,245: 80 00 CE 
1719834670,245: 80 00 C8 
1719834670,245: 80 00 CD 
1719834670,245: 80 00 D9 
1719834670,245: 80 00 E6 
1719834670,245: 80 00 F5 
1719834670,245: 80 01 04 
1719834670,245: 80 01 0B 
1719834670,245: 80 01 03 
1719834670,245: 80 00 F2 
1719834670,245: 80 00 EB 
1719834670,245: 80 00 F6 
1719834670,245: 80 01 09 
1719834670,245: 80 01 0D 
1719834670,276: 80 00 F9 
1719834670,276: 80 00 DF 
1719834670,276: 80 00 D6 
1719834670,276: 80 00 E6 
1719834670,276: 80 00 FB 
1719834670,276: 80 01 00 
1719834670,276: 80 00 EE 
1719834670,276: 80 00 D3 
1719834670,276: 80 00 C5 
1719834670,276: 80 00 CD 
1719834670,276: 80 00 DE 
1719834670,276: 80 00 E2 
1719834670,276: 80 00 CF 
1719834670,276: 80 00 B2 
1719834670,276: 80 00 A3 
1719834670,307: 80 00 AC 
1719834670,307: 80 00 C0 
1719834670,307: 80 00 C3 
1719834670,307: 80 00 AD 
1719834670,307: 80 00 90 
1719834670,307: 80 00 86 
1719834670,307: 80 00 92 
1719834670,307: 80 00 9E 
1719834670,307: 80 00 93 
1719834670,307: 80 00 73 
1719834670,307: 80 00 54 
1719834670,307: 80 00 43 
1719834670,307: 80 00 3F 
1719834670,307: 80 00 3B 
1719834670,307: 80 00 32 
1719834670,338: 80 00 29 
1719834670,338: 80 00 24 
1719834670,338: 80 00 24 
1719834670,338: 80 00 24 
1719834670,338: 80 00 23 
1719834670,338: 80 00 26 
1719834670,338: 80 00 2D 
1719834670,338: 80 00 33 
1719834670,338: 80 00 33 
1719834670,338: 80 00 29 
1719834670,338: 80 00 1E 
1719834670,338: 80 00 18 
1719834670,338: 80 00 17 
1719834670,338: 80 00 15 
1719834670,338: 80 00 0F 
1719834670,369: 80 00 0D 
1719834670,369: 80 00 12 
1719834670,369: 80 00 1A 
1719834670,369: 80 00 1C 
1719834670,369: 80 00 14 
1719834670,369: 80 00 0C 
1719834670,369: 80 00 10 
1719834670,369: 80 00 1F 
1719834670,369: 80 00 27 
1719834670,369: 80 00 1F 
1719834670,369: 80 00 0C 
1719834670,369: 80 FF FC 
1719834670,369: 80 FF F4 
1719834670,369: 80 FF F0 
1719834670,369: 80 FF ED 
1719834670,369: 80 FF F3 
