timestamp:,ADC,HeartRate4sAverage,HeartRate30sAverage
1719834661.384,-1784,88,87
1719834661.384,-1821,88,87
1719834661.384,-1847,88,87
1719834661.384,-1834,88,87
1719834661.384,-1781,88,87
1719834661.384,-1708,88,87
1719834661.384,-1633,88,87
1719834661.384,-1567,88,87
1719834661.384,-1523,88,87
1719834661.384,-1510,88,87
1719834661.384,-1526,88,87
1719834661.384,-1550,88,87
1719834661.384,-1559,88,87
1719834661.384,-1538,88,87
1719834661.384,-1494,88,87
1719834661.415,-1440,88,87
1719834661.415,-1390,88,87
1719834661.415,-1351,88,87
1719834661.415,-1325,88,87
1719834661.415,-1313,88,87
1719834661.415,-1308,88,87
1719834661.415,-1300,88,87
1719834661.415,-1282,88,87
1719834661.415,-1253,88,87
1719834661.415,-1221,88,87
1719834661.415,-1190,88,87
1719834661.415,-1161,88,87
1719834661.415,-1136,88,87
1719834661.415,-1115,88,87
1719834661.415,-1101,88,87
1719834661.415,-1092,88,87
1719834661.415,-1081,88,87
1719834661.415,-1061,88,87
1719834661.415,-1030,88,87
1719834661.415,-998,88,87
1719834661.415,-976,88,87
1719834661.415,-966,88,87
1719834661.446,-962,88,87
1719834661.446,-958,88,87
1719834661.446,-949,88,87
1719834661.446,-940,88,87
1719834661.446,-936,88,87
1719834661.446,-935,88,87
1719834661.446,-933,88,87
1719834661.446,-923,88,87
1719834661.446,-908,88,87
1719834661.446,-893,88,87
1719834661.446,-888,88,87
1719834661.446,-890,88,87
1719834661.446,-890,88,87
1719834661.446,-880,88,87
1719834661.446,-865,88,87
1719834661.477,-860,88,87
1719834661.477,-873,88,87
1719834661.477,-896,88,87
1719834661.477,-913,88,87
1719834661.477,-920,88,87
1719834661.477,-925,88,87
1719834661.477,-937,88,87
1719834661.477,-953,88,87
1719834661.509,-965,88,87
1719834661.509,-970,88,87
1719834661.509,-979,88,87
1719834661.509,-996,88,87
1719834661.509,-1011,88,87
1719834661.509,-1006,88,87
1719834661.509,-986,88,87
1719834661.509,-974,88,87
1719834661.509,-990,88,87
1719834661.509,-1021,88,87
1719834661.509,-1042,88,87
1719834661.509,-1047,88,87
1719834661.509,-1055,88,87
1719834661.509,-1086,88,87
1719834661.509,-1124,88,87
1719834661.509,-1135,88,87
1719834661.509,-1107,88,87
1719834661.509,-1073,88,87
1719834661.509,-1066,88,87
1719834661.509,-1077,88,87
1719834661.509,-1062,88,87
1719834661.509,-1006,88,87
1719834661.54,-944,88,87
1719834661.54,-923,88,87
1719834661.54,-940,88,87
1719834661.54,-938,88,87
1719834661.54,-879,88,87
1719834661.54,-788,88,87
1719834661.54,-721,88,87
1719834661.54,-696,88,87
1719834661.54,-674,88,87
1719834661.54,-614,88,87
1719834661.54,-523,88,87
1719834661.54,-445,88,87
1719834661.54,-410,88,87
1719834661.54,-403,88,87
1719834661.54,-385,88,87
1719834661.57,-334,88,87
1719834661.57,-260,88,87
1719834661.57,-191,88,87
1719834661.57,-146,88,87
1719834661.57,-116,88,87
1719834661.57,-80,88,87
1719834661.57,-20,88,87
1719834661.57,54,88,87
1719834661.57,113,88,87
1719834661.57,138,88,87
1719834661.57,143,88,87
1719834661.57,153,88,87
1719834661.57,177,88,87
1719834661.57,202,88,87
1719834661.57,212,88,87
1719834661.601,211,88,87
1719834661.601,218,88,87
1719834661.601,239,88,87
1719834661.601,263,88,87
1719834661.601,273,88,87
1719834661.601,272,88,87
1719834661.601,273,88,87
1719834661.601,284,88,87
1719834661.601,299,88,87
1719834661.601,310,88,87
1719834661.601,316,88,87
1719834661.601,326,88,87
1719834661.601,341,88,87
1719834661.601,359,88,87
1719834661.601,373,88,87
1719834661.633,379,88,87
1719834661.633,378,88,87
1719834661.633,372,88,87
1719834661.633,364,88,87
1719834661.633,357,88,87
1719834661.633,351,88,87
1719834661.633,342,88,87
1719834661.633,328,88,87
1719834661.633,314,88,87
1719834661.633,307,88,87
1719834661.633,310,88,87
1719834661.633,316,88,87
1719834661.633,316,88,87
1719834661.633,306,88,87
1719834661.633,290,88,87
1719834661.663,283,88,87
1719834661.663,290,88,87
1719834661.663,301,88,87
1719834661.663,292,88,87
1719834661.663,251,88,87
1719834661.663,196,88,87
1719834661.663,161,88,87
1719834661.663,167,88,87
1719834661.663,199,88,87
1719834661.663,215,88,87
1719834661.663,194,88,87
1719834661.663,162,88,87
1719834661.663,162,88,87
1719834661.663,207,88,87
1719834661.663,260,88,87
1719834661.693,275,88,87
1719834661.693,245,88,87
1719834661.693,200,88,87
1719834661.693,174,88,87
1719834661.693,167,88,87
1719834661.693,156,88,87
1719834661.693,127,88,87
1719834661.693,95,88,87
1719834661.693,82,88,87
1719834661.693,94,88,87
1719834661.693,113,88,87
1719834661.693,125,88,87
1719834661.693,128,88,87
1719834661.693,135,88,87
1719834661.693,151,88,87
1719834661.693,171,88,87
1719834661.693,180,88,87
1719834661.693,175,88,87
1719834661.693,160,88,87
1719834661.693,148,88,87
1719834661.693,145,88,87
1719834661.693,143,88,87
1719834661.693,136,88,87
1719834661.723,123,88,87
1719834661.723,112,88,87
1719834661.723,107,88,87
1719834661.723,106,88,87
1719834661.723,104,88,87
1719834661.723,97,88,87
1719834661.723,89,88,87
1719834661.723,85,88,87
1719834661.723,84,88,87
1719834661.723,82,88,87
1719834661.723,76,88,87
1719834661.723,64,88,87
1719834661.723,48,88,87
1719834661.723,33,88,87
1719834661.723,28,88,87
1719834661.755,36,88,87
1719834661.755,55,88,87
1719834661.755,73,88,87
1719834661.755,78,88,87
1719834661.755,73,88,87
1719834661.755,66,88,87
1719834661.755,64,88,87
1719834661.755,66,88,87
1719834661.755,68,88,87
1719834661.755,63,88,87
1719834661.755,51,88,87
1719834661.755,34,88,87
1719834661.755,17,88,87
1719834661.755,8,88,87
1719834661.755,12,88,87
1719834661.785,24,88,87
1719834661.785,35,88,87
1719834661.785,35,88,87
1719834661.785,28,88,87
1719834661.785,26,88,87
1719834661.785,32,88,87
1719834661.785,41,88,87
1719834661.785,45,88,87
1719834661.785,43,88,87
1719834661.785,42,88,87
1719834661.785,45,88,87
1719834661.785,48,88,87
1719834661.785,47,88,87
1719834661.785,45,88,87
1719834661.785,49,88,87
1719834661.816,60,88,87
1719834661.816,69,88,87
1719834661.816,67,88,87
1719834661.816,57,88,87
1719834661.816,53,88,87
1719834661.816,60,88,87
1719834661.816,68,88,87
1719834661.816,67,88,87
1719834661.816,58,88,87
1719834661.816,51,88,87
1719834661.816,54,88,87
1719834661.816,60,88,87
1719834661.816,54,88,87
1719834661.816,31,88,87
1719834661.816,5,88,87
1719834661.848,-9,88,87
1719834661.848,-5,88,87
1719834661.848,0,88,87
1719834661.848,-7,88,87
1719834661.848,-21,88,87
1719834661.848,-16,88,87
1719834661.848,21,88,87
1719834661.848,77,88,87
1719834661.848,120,88,87
1719834661.848,133,88,87
1719834661.848,138,88,87
1719834661.848,169,88,87
1719834661.848,230,88,87
1719834661.848,282,88,87
1719834661.848,291,88,87
1719834661.848,261,88,87
1719834661.848,230,88,87
1719834661.848,218,88,87
1719834661.848,210,88,87
1719834661.848,189,88,87
1719834661.848,163,88,87
1719834661.848,159,88,87
1719834661.88,180,88,87
1719834661.88,200,88,87
1719834661.88,191,88,87
1719834661.88,167,88,87
1719834661.88,162,88,87
1719834661.88,182,88,87
1719834661.88,194,88,87
1719834661.88,167,88,87
1719834661.912,109,88,87
1719834661.912,56,88,87
1719834661.912,28,88,87
1719834661.912,13,88,87
1719834661.912,-4,88,87
1719834661.912,-23,88,87
1719834661.912,-30,88,87
1719834661.912,-19,88,87
1719834661.912,-5,88,87
1719834661.912,-1,88,87
1719834661.912,-7,88,87
1719834661.912,-11,88,87
1719834661.912,-2,88,87
1719834661.912,15,88,87
1719834661.912,27,88,87
1719834661.943,18,88,87
1719834661.943,-9,88,87
1719834661.943,-34,88,87
1719834661.943,-27,88,87
1719834661.943,13,88,87
1719834661.943,56,88,87
1719834661.943,65,88,87
1719834661.943,37,88,87
1719834661.943,6,88,87
1719834661.943,3,88,87
1719834661.943,14,88,87
1719834661.943,4,88,87
1719834661.943,-31,88,87
1719834661.943,-50,88,87
1719834661.943,-29,88,87
1719834661.974,1,88,87
1719834661.974,-8,88,87
1719834661.974,-53,88,87
1719834661.974,-64,88,87
1719834661.974,26,88,87
1719834661.974,185,88,87
1719834661.974,294,88,87
1719834661.974,270,88,87
1719834661.974,167,88,87
1719834661.974,110,88,87
1719834661.974,142,88,87
1719834661.974,156,88,87
1719834661.974,8,88,87
1719834661.974,-310,88,87
1719834661.974,-639,88,87
1719834662.006,-776,88,87
1719834662.006,-631,88,87
1719834662.006,-220,88,87
1719834662.006,472,88,87
1719834662.006,1556,88,87
1719834662.006,3116,88,87
1719834662.006,5034,88,87
1719834662.006,6995,88,87
1719834662.006,8702,88,87
1719834662.006,10079,88,87
1719834662.006,11211,88,87
1719834662.006,12081,88,87
1719834662.006,12400,88,87
1719834662.006,11786,88,87
1719834662.006,10144,88,87
1719834662.006,7855,88,87
1719834662.006,5553,88,87
1719834662.006,3669,88,87
1719834662.006,2189,88,87
1719834662.006,851,88,87
1719834662.006,-453,88,87
1719834662.006,-1512,88,87
1719834662.037,-2015,86,87
1719834662.037,-1884,86,87
1719834662.037,-1378,86,87
1719834662.037,-868,86,87
1719834662.037,-577,86,87
1719834662.037,-502,86,87
1719834662.037,-537,86,87
1719834662.037,-622,86,87
1719834662.037,-762,86,87
1719834662.037,-956,86,87
1719834662.037,-1167,86,87
1719834662.037,-1344,86,87
1719834662.037,-1476,86,87
1719834662.037,-1585,86,87
1719834662.037,-1689,86,87
1719834662.067,-1787,86,87
1719834662.067,-1848,86,87
1719834662.067,-1838,86,87
1719834662.067,-1768,86,87
1719834662.067,-1695,86,87
1719834662.067,-1678,86,87
1719834662.067,-1717,86,87
1719834662.067,-1758,86,87
1719834662.067,-1749,86,87
1719834662.067,-1688,86,87
1719834662.067,-1621,86,87
1719834662.067,-1581,86,87
1719834662.067,-1564,86,87
1719834662.067,-1555,86,87
1719834662.067,-1552,86,87
1719834662.098,-1565,86,87
1719834662.098,-1583,86,87
1719834662.098,-1572,86,87
1719834662.098,-1507,86,87
1719834662.098,-1407,86,87
1719834662.098,-1317,86,87
1719834662.098,-1263,86,87
1719834662.098,-1234,86,87
1719834662.098,-1209,86,87
1719834662.098,-1188,86,87
1719834662.098,-1189,86,87
1719834662.098,-1212,86,87
1719834662.098,-1226,86,87
1719834662.098,-1199,86,87
1719834662.098,-1140,86,87
1719834662.128,-1087,86,87
1719834662.128,-1062,86,87
1719834662.128,-1046,86,87
1719834662.128,-1002,86,87
1719834662.128,-930,86,87
1719834662.128,-869,86,87
1719834662.128,-851,86,87
1719834662.128,-861,86,87
1719834662.128,-857,86,87
1719834662.128,-823,86,87
1719834662.128,-786,86,87
1719834662.128,-781,86,87
1719834662.128,-806,86,87
1719834662.128,-828,86,87
1719834662.128,-823,86,87
1719834662.158,-794,86,87
1719834662.158,-762,86,87
1719834662.158,-738,86,87
1719834662.158,-714,86,87
1719834662.158,-688,86,87
1719834662.158,-663,86,87
1719834662.158,-649,86,87
1719834662.158,-641,86,87
1719834662.158,-631,86,87
1719834662.158,-621,86,87
1719834662.158,-620,86,87
1719834662.158,-642,86,87
1719834662.158,-681,86,87
1719834662.158,-715,86,87
1719834662.158,-723,86,87
1719834662.189,-712,86,87
1719834662.189,-704,86,87
1719834662.189,-716,86,87
1719834662.189,-736,86,87
1719834662.189,-748,86,87
1719834662.189,-753,86,87
1719834662.189,-770,86,87
1719834662.189,-805,86,87
1719834662.189,-836,86,87
1719834662.189,-840,86,87
1719834662.189,-831,86,87
1719834662.189,-849,86,87
1719834662.189,-905,86,87
1719834662.189,-963,86,87
1719834662.189,-976,86,87
1719834662.189,-944,86,87
1719834662.189,-916,86,87
1719834662.189,-932,86,87
1719834662.189,-979,86,87
1719834662.189,-1020,86,87
1719834662.189,-1035,86,87
1719834662.189,-1037,86,87
1719834662.189,-1039,86,87
1719834662.22,-1034,86,87
1719834662.22,-1011,86,87
1719834662.22,-984,86,87
1719834662.22,-974,86,87
1719834662.22,-982,86,87
1719834662.22,-971,86,87
1719834662.22,-914,86,87
1719834662.25,-828,86,87
1719834662.25,-764,86,87
1719834662.25,-749,86,87
1719834662.25,-758,86,87
1719834662.25,-742,86,87
1719834662.25,-686,86,87
1719834662.25,-618,86,87
1719834662.25,-566,86,87
1719834662.25,-525,86,87
1719834662.25,-468,86,87
1719834662.25,-394,86,87
1719834662.25,-332,86,87
1719834662.25,-297,86,87
1719834662.25,-268,86,87
1719834662.25,-211,86,87
1719834662.28,-131,86,87
1719834662.28,-69,86,87
1719834662.28,-49,86,87
1719834662.28,-50,86,87
1719834662.28,-34,86,87
1719834662.28,7,86,87
1719834662.28,50,86,87
1719834662.28,79,86,87
1719834662.28,98,86,87
1719834662.28,122,86,87
1719834662.28,148,86,87
1719834662.28,166,86,87
1719834662.28,179,86,87
1719834662.28,201,86,87
1719834662.28,232,86,87
1719834662.311,254,86,87
1719834662.311,261,86,87
1719834662.311,268,86,87
1719834662.311,293,86,87
1719834662.311,333,86,87
1719834662.311,363,86,87
1719834662.311,369,86,87
1719834662.311,364,86,87
1719834662.311,369,86,87
1719834662.311,389,86,87
1719834662.311,413,86,87
1719834662.311,427,86,87
1719834662.311,422,86,87
1719834662.311,401,86,87
1719834662.311,376,86,87
1719834662.311,366,86,87
1719834662.311,380,86,87
1719834662.311,406,86,87
1719834662.311,420,86,87
1719834662.311,410,86,87
1719834662.311,393,86,87
1719834662.311,394,86,87
1719834662.311,417,86,87
1719834662.342,443,86,87
1719834662.342,453,86,87
1719834662.342,449,86,87
1719834662.342,444,86,87
1719834662.342,441,86,87
1719834662.342,432,86,87
1719834662.342,412,86,87
1719834662.342,392,86,87
1719834662.342,386,86,87
1719834662.342,389,86,87
1719834662.342,380,86,87
1719834662.342,351,86,87
1719834662.372,321,86,87
1719834662.372,320,86,87
1719834662.372,345,86,87
1719834662.372,360,86,87
1719834662.372,338,86,87
1719834662.372,299,86,87
1719834662.372,290,86,87
1719834662.372,322,86,87
1719834662.372,351,86,87
1719834662.372,332,86,87
1719834662.372,279,86,87
1719834662.372,252,86,87
1719834662.372,286,86,87
1719834662.372,342,86,87
1719834662.372,357,86,87
1719834662.402,316,86,87
1719834662.402,270,86,87
1719834662.402,260,86,87
1719834662.402,276,86,87
1719834662.402,277,86,87
1719834662.402,251,86,87
1719834662.402,222,86,87
1719834662.402,215,86,87
1719834662.402,219,86,87
1719834662.402,214,86,87
1719834662.402,198,86,87
1719834662.402,186,86,87
1719834662.402,187,86,87
1719834662.402,191,86,87
1719834662.402,188,86,87
1719834662.432,175,86,87
1719834662.432,159,86,87
1719834662.432,142,86,87
1719834662.432,133,86,87
1719834662.432,137,86,87
1719834662.432,150,86,87
1719834662.432,154,86,87
1719834662.432,141,86,87
1719834662.432,131,86,87
1719834662.432,148,86,87
1719834662.432,182,86,87
1719834662.432,190,86,87
1719834662.432,149,86,87
1719834662.432,96,86,87
1719834662.432,95,86,87
1719834662.464,157,86,87
1719834662.464,216,86,87
1719834662.464,201,86,87
1719834662.464,122,86,87
1719834662.464,66,86,87
1719834662.464,91,86,87
1719834662.464,159,86,87
1719834662.464,185,86,87
1719834662.464,141,86,87
1719834662.464,79,86,87
1719834662.464,60,86,87
1719834662.464,77,86,87
1719834662.464,84,86,87
1719834662.464,67,86,87
1719834662.464,60,86,87
1719834662.495,83,86,87
1719834662.495,104,86,87
1719834662.495,83,86,87
1719834662.495,41,86,87
1719834662.495,46,86,87
1719834662.495,115,86,87
1719834662.495,179,86,87
1719834662.495,159,86,87
1719834662.495,69,86,87
1719834662.495,1,86,87
1719834662.495,18,86,87
1719834662.495,71,86,87
1719834662.495,71,86,87
1719834662.495,0,86,87
1719834662.495,-68,86,87
1719834662.527,-58,86,87
1719834662.527,20,86,87
1719834662.527,97,86,87
1719834662.527,134,86,87
1719834662.527,156,86,87
1719834662.527,202,86,87
1719834662.527,272,86,87
1719834662.527,326,86,87
1719834662.527,341,86,87
1719834662.527,328,86,87
1719834662.527,306,86,87
1719834662.527,283,86,87
1719834662.527,255,86,87
1719834662.527,224,86,87
1719834662.527,202,86,87
1719834662.558,193,86,87
1719834662.558,188,86,87
1719834662.558,184,86,87
1719834662.558,184,86,87
1719834662.558,195,86,87
1719834662.558,210,86,87
1719834662.558,211,86,87
1719834662.558,192,86,87
1719834662.558,162,86,87
1719834662.558,138,86,87
1719834662.558,127,86,87
1719834662.558,121,86,87
1719834662.558,109,86,87
1719834662.558,94,86,87
1719834662.558,85,86,87
1719834662.558,89,86,87
1719834662.558,96,86,87
1719834662.558,94,86,87
1719834662.558,79,86,87
1719834662.558,62,86,87
1719834662.558,59,86,87
1719834662.558,71,86,87
1719834662.558,81,86,87
1719834662.59,73,86,87
1719834662.59,51,86,87
1719834662.59,40,86,87
1719834662.59,57,86,87
1719834662.59,88,86,87
1719834662.59,104,86,87
1719834662.59,93,86,87
1719834662.59,76,86,87
1719834662.59,82,86,87
1719834662.59,107,86,87
1719834662.59,117,86,87
1719834662.59,92,86,87
1719834662.59,58,86,87
1719834662.59,54,86,87
1719834662.59,88,86,87
1719834662.622,120,86,87
1719834662.622,117,86,87
1719834662.622,93,86,87
1719834662.622,91,86,87
1719834662.622,122,86,87
1719834662.622,166,86,87
1719834662.622,191,86,87
1719834662.652,198,86,87
1719834662.652,213,86,87
1719834662.652,243,86,87
1719834662.652,264,86,87
1719834662.652,252,86,87
1719834662.652,220,86,87
1719834662.652,203,86,87
1719834662.652,197,86,87
1719834662.652,155,86,87
1719834662.652,35,86,87
1719834662.652,-137,86,87
1719834662.652,-267,86,87
1719834662.652,-246,86,87
1719834662.652,-33,86,87
1719834662.652,369,86,87
1719834662.652,1003,86,87
1719834662.652,1980,86,87
1719834662.652,3345,86,87
1719834662.652,4922,86,87
1719834662.652,6372,86,87
1719834662.652,7468,86,87
1719834662.652,8291,86,87
1719834662.652,9057,86,87
1719834662.684,9712,91,88
1719834662.684,9809,91,88
1719834662.684,8888,91,88
1719834662.684,7012,91,88
1719834662.684,4815,91,88
1719834662.684,2981,91,88
1719834662.684,1686,91,88
1719834662.684,613,91,88
1719834662.684,-550,91,88
1719834662.684,-1707,91,88
1719834662.684,-2467,91,88
1719834662.684,-2566,91,88
1719834662.684,-2122,91,88
1719834662.684,-1476,91,88
1719834662.684,-926,91,88
1719834662.715,-590,91,88
1719834662.715,-448,91,88
1719834662.715,-434,91,88
1719834662.715,-474,91,88
1719834662.715,-504,91,88
1719834662.715,-513,91,88
1719834662.715,-536,91,88
1719834662.715,-619,91,88
1719834662.715,-764,91,88
1719834662.715,-916,91,88
1719834662.715,-1020,91,88
1719834662.715,-1065,91,88
1719834662.715,-1071,91,88
1719834662.715,-1064,91,88
1719834662.715,-1068,91,88
1719834662.746,-1098,91,88
1719834662.746,-1151,91,88
1719834662.746,-1203,91,88
1719834662.746,-1225,91,88
1719834662.746,-1198,91,88
1719834662.746,-1127,91,88
1719834662.746,-1037,91,88
1719834662.746,-956,91,88
1719834662.746,-905,91,88
1719834662.746,-886,91,88
1719834662.746,-894,91,88
1719834662.746,-917,91,88
1719834662.746,-940,91,88
1719834662.746,-946,91,88
1719834662.746,-920,91,88
1719834662.778,-870,91,88
1719834662.778,-814,91,88
1719834662.778,-773,91,88
1719834662.778,-748,91,88
1719834662.778,-727,91,88
1719834662.778,-701,91,88
1719834662.778,-676,91,88
1719834662.778,-663,91,88
1719834662.778,-661,91,88
1719834662.778,-651,91,88
1719834662.778,-617,91,88
1719834662.778,-567,91,88
1719834662.778,-524,91,88
1719834662.778,-506,91,88
1719834662.778,-506,91,88
1719834662.778,-501,91,88
1719834662.778,-477,91,88
1719834662.778,-443,91,88
1719834662.778,-412,91,88
1719834662.778,-390,91,88
1719834662.778,-367,91,88
1719834662.778,-333,91,88
1719834662.809,-291,91,88
1719834662.809,-258,91,88
1719834662.809,-247,91,88
1719834662.809,-250,91,88
1719834662.809,-252,91,88
1719834662.809,-243,91,88
1719834662.809,-232,91,88
1719834662.809,-233,91,88
1719834662.809,-244,91,88
1719834662.809,-250,91,88
1719834662.809,-241,91,88
1719834662.809,-223,91,88
1719834662.809,-211,91,88
1719834662.809,-209,91,88
1719834662.809,-213,91,88
1719834662.841,-217,91,88
1719834662.841,-226,91,88
1719834662.841,-245,91,88
1719834662.841,-268,91,88
1719834662.841,-281,91,88
1719834662.841,-284,91,88
1719834662.841,-295,91,88
1719834662.841,-328,91,88
1719834662.841,-375,91,88
1719834662.841,-413,91,88
1719834662.841,-434,91,88
1719834662.841,-452,91,88
1719834662.841,-487,91,88
1719834662.841,-540,91,88
1719834662.841,-595,91,88
1719834662.872,-639,91,88
1719834662.872,-672,91,88
1719834662.872,-703,91,88
1719834662.872,-734,91,88
1719834662.872,-765,91,88
1719834662.872,-797,91,88
1719834662.872,-830,91,88
1719834662.872,-861,91,88
1719834662.872,-882,91,88
1719834662.872,-891,91,88
1719834662.872,-896,91,88
1719834662.872,-909,91,88
1719834662.872,-929,91,88
1719834662.872,-942,91,88
1719834662.872,-936,91,88
1719834662.902,-914,91,88
1719834662.902,-886,91,88
1719834662.902,-859,91,88
1719834662.902,-833,91,88
1719834662.902,-802,91,88
1719834662.902,-767,91,88
1719834662.902,-732,91,88
1719834662.902,-696,91,88
1719834662.932,-660,91,88
1719834662.932,-622,91,88
1719834662.932,-585,91,88
1719834662.932,-550,91,88
1719834662.932,-515,91,88
1719834662.932,-477,91,88
1719834662.932,-436,91,88
1719834662.932,-395,91,88
1719834662.932,-355,91,88
1719834662.932,-313,91,88
1719834662.932,-268,91,88
1719834662.932,-221,91,88
1719834662.932,-177,91,88
1719834662.932,-140,91,88
1719834662.932,-104,91,88
1719834662.932,-68,91,88
1719834662.932,-29,91,88
1719834662.932,9,91,88
1719834662.932,43,91,88
1719834662.932,73,91,88
1719834662.932,95,91,88
1719834662.932,110,91,88
1719834662.964,122,91,88
1719834662.964,140,91,88
1719834662.964,168,91,88
1719834662.964,196,91,88
1719834662.964,211,91,88
1719834662.964,212,91,88
1719834662.964,213,91,88
1719834662.964,226,91,88
1719834662.964,250,91,88
1719834662.964,272,91,88
1719834662.964,282,91,88
1719834662.964,281,91,88
1719834662.964,281,91,88
1719834662.964,288,91,88
1719834662.964,298,91,88
1719834662.995,304,91,88
1719834662.995,306,91,88
1719834662.995,308,91,88
1719834662.995,312,91,88
1719834662.995,317,91,88
1719834662.995,319,91,88
1719834662.995,319,91,88
1719834662.995,320,91,88
1719834662.995,323,91,88
1719834662.995,325,91,88
1719834662.995,324,91,88
1719834662.995,321,91,88
1719834662.995,319,91,88
1719834662.995,319,91,88
1719834662.995,319,91,88
1719834663.026,319,91,88
1719834663.026,319,91,88
1719834663.026,319,91,88
1719834663.026,319,91,88
1719834663.026,322,91,88
1719834663.026,327,91,88
1719834663.026,335,91,88
1719834663.026,345,91,88
1719834663.026,353,91,88
1719834663.026,354,91,88
1719834663.026,353,91,88
1719834663.026,355,91,88
1719834663.026,360,91,88
1719834663.026,363,91,88
1719834663.026,357,91,88
1719834663.056,344,91,88
1719834663.056,332,91,88
1719834663.056,326,91,88
1719834663.056,323,91,88
1719834663.056,317,91,88
1719834663.056,308,91,88
1719834663.056,299,91,88
1719834663.056,293,91,88
1719834663.056,287,91,88
1719834663.056,277,91,88
1719834663.056,261,91,88
1719834663.056,247,91,88
1719834663.056,236,91,88
1719834663.056,221,91,88
1719834663.056,198,91,88
1719834663.088,171,91,88
1719834663.088,153,91,88
1719834663.088,154,91,88
1719834663.088,165,91,88
1719834663.088,168,91,88
1719834663.088,155,91,88
1719834663.088,138,91,88
1719834663.088,134,91,88
1719834663.088,145,91,88
1719834663.088,156,91,88
1719834663.088,150,91,88
1719834663.088,128,91,88
1719834663.088,107,91,88
1719834663.088,99,91,88
1719834663.088,100,91,88
1719834663.119,102,91,88
1719834663.119,98,91,88
1719834663.119,92,91,88
1719834663.119,88,91,88
1719834663.119,86,91,88
1719834663.119,85,91,88
1719834663.119,84,91,88
1719834663.119,81,91,88
1719834663.119,79,91,88
1719834663.119,77,91,88
1719834663.119,75,91,88
1719834663.119,72,91,88
1719834663.119,67,91,88
1719834663.119,63,91,88
1719834663.119,63,91,88
1719834663.119,69,91,88
1719834663.119,76,91,88
1719834663.119,77,91,88
1719834663.119,75,91,88
1719834663.119,76,91,88
1719834663.119,81,91,88
1719834663.119,81,91,88
1719834663.119,73,91,88
1719834663.151,60,91,88
1719834663.151,51,91,88
1719834663.151,48,91,88
1719834663.151,42,91,88
1719834663.151,34,91,88
1719834663.151,27,91,88
1719834663.151,23,91,88
1719834663.151,16,91,88
1719834663.151,2,91,88
1719834663.151,-5,91,88
1719834663.151,17,91,88
1719834663.151,73,91,88
1719834663.151,136,91,88
1719834663.151,179,91,88
1719834663.151,199,91,88
1719834663.182,219,91,88
1719834663.182,256,91,88
1719834663.182,295,91,88
1719834663.182,311,91,88
1719834663.182,296,91,88
1719834663.182,265,91,88
1719834663.182,242,91,88
1719834663.182,228,91,88
1719834663.182,215,91,88
1719834663.182,199,91,88
1719834663.182,187,91,88
1719834663.182,185,91,88
1719834663.182,188,91,88
1719834663.182,183,91,88
1719834663.182,169,91,88
1719834663.214,156,91,88
1719834663.214,148,91,88
1719834663.214,138,91,88
1719834663.214,114,91,88
1719834663.214,77,91,88
1719834663.214,41,91,88
1719834663.214,14,91,88
1719834663.214,-6,91,88
1719834663.214,-29,91,88
1719834663.214,-50,91,88
1719834663.214,-55,91,88
1719834663.214,-38,91,88
1719834663.214,-14,91,88
1719834663.214,-5,91,88
1719834663.214,-15,91,88
1719834663.245,-24,91,88
1719834663.245,-14,91,88
1719834663.245,9,91,88
1719834663.245,22,91,88
1719834663.245,15,91,88
1719834663.245,0,91,88
1719834663.245,-7,91,88
1719834663.245,-5,91,88
1719834663.245,-3,91,88
1719834663.245,-8,91,88
1719834663.245,-12,91,88
1719834663.245,-8,91,88
1719834663.245,1,91,88
1719834663.245,5,91,88
1719834663.245,4,91,88
1719834663.276,7,91,88
1719834663.276,16,91,88
1719834663.276,19,91,88
1719834663.276,9,91,88
1719834663.276,-7,91,88
1719834663.276,-12,91,88
1719834663.276,-2,91,88
1719834663.276,19,91,88
1719834663.276,46,91,88
1719834663.276,82,91,88
1719834663.276,139,91,88
1719834663.276,210,91,88
1719834663.276,261,91,88
1719834663.276,263,91,88
1719834663.276,231,91,88
1719834663.307,216,91,88
1719834663.307,227,91,88
1719834663.307,201,91,88
1719834663.307,62,91,88
1719834663.307,-181,91,88
1719834663.307,-409,91,88
1719834663.307,-472,91,88
1719834663.307,-285,91,88
1719834663.307,155,91,88
1719834663.307,865,91,88
1719834663.307,1925,91,88
1719834663.307,3397,91,88
1719834663.307,5196,91,88
1719834663.307,7070,91,88
1719834663.307,8757,91,88
1719834663.339,10160,93,90
1719834663.339,11344,93,90
1719834663.339,12296,93,90
1719834663.339,12734,93,90
1719834663.339,12217,93,90
1719834663.339,10556,93,90
1719834663.339,8100,93,90
1719834663.339,5573,93,90
1719834663.339,3530,93,90
1719834663.339,1984,93,90
1719834663.339,573,93,90
1719834663.339,-912,93,90
1719834663.339,-2218,93,90
1719834663.339,-2867,93,90
1719834663.339,-2666,93,90
1719834663.339,-1915,93,90
1719834663.339,-1147,93,90
1719834663.339,-717,93,90
1719834663.339,-632,93,90
1719834663.37,-712,93,90
1719834663.37,-818,93,90
1719834663.37,-929,93,90
1719834663.37,-1068,93,90
1719834663.37,-1242,93,90
1719834663.37,-1440,93,90
1719834663.37,-1647,93,90
1719834663.37,-1834,93,90
1719834663.37,-1954,93,90
1719834663.37,-1980,93,90
1719834663.37,-1933,93,90
1719834663.37,-1854,93,90
1719834663.37,-1786,93,90
1719834663.37,-1759,93,90
1719834663.37,-1787,93,90
1719834663.401,-1859,93,90
1719834663.401,-1938,93,90
1719834663.401,-1969,93,90
1719834663.401,-1920,93,90
1719834663.401,-1804,93,90
1719834663.401,-1677,93,90
1719834663.401,-1587,93,90
1719834663.401,-1552,93,90
1719834663.401,-1557,93,90
1719834663.401,-1584,93,90
1719834663.401,-1619,93,90
1719834663.401,-1649,93,90
1719834663.401,-1656,93,90
1719834663.401,-1622,93,90
1719834663.401,-1553,93,90
1719834663.432,-1474,93,90
1719834663.432,-1411,93,90
1719834663.432,-1377,93,90
1719834663.432,-1369,93,90
1719834663.432,-1375,93,90
1719834663.432,-1379,93,90
1719834663.432,-1366,93,90
1719834663.432,-1332,93,90
1719834663.432,-1284,93,90
1719834663.432,-1241,93,90
1719834663.432,-1213,93,90
1719834663.432,-1196,93,90
1719834663.432,-1179,93,90
1719834663.432,-1157,93,90
1719834663.432,-1135,93,90
1719834663.463,-1118,93,90
1719834663.463,-1104,93,90
1719834663.463,-1087,93,90
1719834663.463,-1066,93,90
1719834663.463,-1042,93,90
1719834663.463,-1017,93,90
1719834663.463,-992,93,90
1719834663.463,-971,93,90
1719834663.463,-956,93,90
1719834663.463,-946,93,90
1719834663.463,-939,93,90
1719834663.463,-935,93,90
1719834663.463,-936,93,90
1719834663.463,-940,93,90
1719834663.463,-939,93,90
1719834663.463,-928,93,90
1719834663.463,-913,93,90
1719834663.463,-908,93,90
1719834663.463,-919,93,90
1719834663.463,-935,93,90
1719834663.463,-942,93,90
1719834663.463,-935,93,90
1719834663.463,-923,93,90
1719834663.494,-919,93,90
1719834663.494,-928,93,90
1719834663.494,-944,93,90
1719834663.494,-958,93,90
1719834663.494,-966,93,90
1719834663.494,-973,93,90
1719834663.494,-985,93,90
1719834663.525,-1005,93,90
1719834663.525,-1031,93,90
1719834663.525,-1060,93,90
1719834663.525,-1087,93,90
1719834663.525,-1109,93,90
1719834663.525,-1125,93,90
1719834663.525,-1134,93,90
1719834663.525,-1136,93,90
1719834663.525,-1139,93,90
1719834663.525,-1149,93,90
1719834663.525,-1164,93,90
1719834663.525,-1177,93,90
1719834663.525,-1178,93,90
1719834663.525,-1172,93,90
1719834663.525,-1170,93,90
1719834663.556,-1181,93,90
1719834663.556,-1196,93,90
1719834663.556,-1201,93,90
1719834663.556,-1192,93,90
1719834663.556,-1177,93,90
1719834663.556,-1167,93,90
1719834663.556,-1154,93,90
1719834663.556,-1124,93,90
1719834663.556,-1070,93,90
1719834663.556,-1008,93,90
1719834663.556,-959,93,90
1719834663.556,-926,93,90
1719834663.556,-892,93,90
1719834663.556,-842,93,90
1719834663.556,-778,93,90
1719834663.556,-719,93,90
1719834663.556,-676,93,90
1719834663.556,-640,93,90
1719834663.556,-598,93,90
1719834663.556,-548,93,90
1719834663.556,-496,93,90
1719834663.556,-448,93,90
1719834663.556,-401,93,90
1719834663.588,-350,93,90
1719834663.588,-299,93,90
1719834663.588,-257,93,90
1719834663.588,-223,93,90
1719834663.588,-188,93,90
1719834663.588,-146,93,90
1719834663.588,-104,93,90
1719834663.588,-74,93,90
1719834663.588,-55,93,90
1719834663.588,-36,93,90
1719834663.588,-6,93,90
1719834663.588,28,93,90
1719834663.588,50,93,90
1719834663.588,52,93,90
1719834663.588,47,93,90
1719834663.619,55,93,90
1719834663.619,79,93,90
1719834663.619,101,93,90
1719834663.619,102,93,90
1719834663.619,86,93,90
1719834663.619,76,93,90
1719834663.619,91,93,90
1719834663.619,121,93,90
1719834663.619,139,93,90
1719834663.619,136,93,90
1719834663.619,123,93,90
1719834663.619,120,93,90
1719834663.619,132,93,90
1719834663.619,145,93,90
1719834663.619,147,93,90
1719834663.65,140,93,90
1719834663.65,135,93,90
1719834663.65,135,93,90
1719834663.65,135,93,90
1719834663.65,128,93,90
1719834663.65,116,93,90
1719834663.65,107,93,90
1719834663.682,103,93,90
1719834663.682,101,93,90
1719834663.682,95,93,90
1719834663.682,86,93,90
1719834663.682,79,93,90
1719834663.682,77,93,90
1719834663.682,77,93,90
1719834663.682,78,93,90
1719834663.682,76,93,90
1719834663.682,74,93,90
1719834663.682,71,93,90
1719834663.682,62,93,90
1719834663.682,47,93,90
1719834663.682,30,93,90
1719834663.682,21,93,90
1719834663.682,24,93,90
1719834663.682,31,93,90
1719834663.682,32,93,90
1719834663.682,22,93,90
1719834663.682,10,93,90
1719834663.682,3,93,90
1719834663.682,4,93,90
1719834663.682,4,93,90
1719834663.712,-7,93,90
1719834663.712,-30,93,90
1719834663.712,-56,93,90
1719834663.712,-76,93,90
1719834663.712,-84,93,90
1719834663.712,-85,93,90
1719834663.712,-89,93,90
1719834663.712,-100,93,90
1719834663.712,-114,93,90
1719834663.712,-124,93,90
1719834663.712,-124,93,90
1719834663.712,-121,93,90
1719834663.712,-123,93,90
1719834663.712,-135,93,90
1719834663.712,-149,93,90
1719834663.743,-155,93,90
1719834663.743,-153,93,90
1719834663.743,-152,93,90
1719834663.743,-160,93,90
1719834663.743,-172,93,90
1719834663.743,-178,93,90
1719834663.743,-175,93,90
1719834663.743,-170,93,90
1719834663.743,-175,93,90
1719834663.743,-190,93,90
1719834663.743,-203,93,90
1719834663.743,-212,93,90
1719834663.743,-222,93,90
1719834663.743,-239,93,90
1719834663.743,-256,93,90
1719834663.774,-261,93,90
1719834663.774,-253,93,90
1719834663.774,-247,93,90
1719834663.774,-257,93,90
1719834663.774,-278,93,90
1719834663.774,-293,93,90
1719834663.774,-290,93,90
1719834663.774,-280,93,90
1719834663.774,-278,93,90
1719834663.774,-290,93,90
1719834663.774,-303,93,90
1719834663.774,-306,93,90
1719834663.774,-297,93,90
1719834663.774,-283,93,90
1719834663.774,-273,93,90
1719834663.805,-268,93,90
1719834663.805,-266,93,90
1719834663.805,-263,93,90
1719834663.805,-260,93,90
1719834663.805,-257,93,90
1719834663.805,-258,93,90
1719834663.805,-264,93,90
1719834663.805,-270,93,90
1719834663.805,-272,93,90
1719834663.805,-272,93,90
1719834663.805,-275,93,90
1719834663.805,-288,93,90
1719834663.805,-305,93,90
1719834663.805,-318,93,90
1719834663.805,-321,93,90
1719834663.805,-319,93,90
1719834663.805,-319,93,90
1719834663.805,-325,93,90
1719834663.805,-328,93,90
1719834663.805,-319,93,90
1719834663.805,-294,93,90
1719834663.805,-257,93,90
1719834663.837,-216,93,90
1719834663.837,-175,93,90
1719834663.837,-138,93,90
1719834663.837,-103,93,90
1719834663.837,-74,93,90
1719834663.837,-53,93,90
1719834663.837,-42,93,90
1719834663.837,-41,93,90
1719834663.837,-50,93,90
1719834663.837,-70,93,90
1719834663.837,-96,93,90
1719834663.837,-123,93,90
1719834663.837,-140,93,90
1719834663.837,-147,93,90
1719834663.837,-151,93,90
1719834663.867,-157,93,90
1719834663.867,-165,93,90
1719834663.867,-171,93,90
1719834663.867,-176,93,90
1719834663.867,-185,93,90
1719834663.867,-202,93,90
1719834663.867,-226,93,90
1719834663.867,-252,93,90
1719834663.898,-280,93,90
1719834663.898,-307,93,90
1719834663.898,-327,93,90
1719834663.898,-330,93,90
1719834663.898,-319,93,90
1719834663.898,-307,93,90
1719834663.898,-305,93,90
1719834663.898,-309,93,90
1719834663.898,-306,93,90
1719834663.898,-289,93,90
1719834663.898,-269,93,90
1719834663.898,-261,93,90
1719834663.898,-273,93,90
1719834663.898,-294,93,90
1719834663.898,-307,93,90
1719834663.93,-308,93,90
1719834663.93,-300,93,90
1719834663.93,-291,93,90
1719834663.93,-286,93,90
1719834663.93,-285,93,90
1719834663.93,-285,93,90
1719834663.93,-283,93,90
1719834663.93,-280,93,90
1719834663.93,-276,93,90
1719834663.93,-272,93,90
1719834663.93,-273,93,90
1719834663.93,-282,93,90
1719834663.93,-298,93,90
1719834663.93,-310,93,90
1719834663.93,-308,93,90
1719834663.93,-291,93,90
1719834663.93,-267,93,90
1719834663.93,-242,93,90
1719834663.93,-214,93,90
1719834663.93,-169,93,90
1719834663.93,-109,93,90
1719834663.93,-63,93,90
1719834663.961,-67,93,90
1719834663.961,-114,93,90
1719834663.961,-152,93,90
1719834663.961,-159,93,90
1719834663.961,-186,93,90
1719834663.961,-321,93,90
1719834663.961,-572,93,90
1719834663.961,-827,93,90
1719834663.961,-929,93,90
1719834663.961,-781,93,90
1719834663.961,-373,93,90
1719834663.961,301,93,90
1719834663.961,1320,93,90
1719834663.961,2770,93,90
1719834663.961,4609,93,90
1719834663.993,6612,93,90
1719834663.993,8487,93,90
1719834663.993,10059,93,90
1719834663.993,11318,93,90
1719834663.993,12263,93,90
1719834663.993,12712,93,90
1719834663.993,12320,93,90
1719834663.993,10862,93,90
1719834663.993,8536,93,90
1719834663.993,5933,93,90
1719834663.993,3650,93,90
1719834663.993,1879,93,90
1719834663.993,408,93,90
1719834663.993,-1000,93,90
1719834663.993,-2251,93,90
1719834664.025,-2977,91,90
1719834664.025,-2936,91,90
1719834664.025,-2296,91,90
1719834664.025,-1515,91,90
1719834664.025,-989,91,90
1719834664.025,-818,91,90
1719834664.025,-869,91,90
1719834664.025,-991,91,90
1719834664.025,-1131,91,90
1719834664.025,-1299,91,90
1719834664.025,-1501,91,90
1719834664.025,-1720,91,90
1719834664.025,-1937,91,90
1719834664.025,-2124,91,90
1719834664.025,-2247,91,90
1719834664.056,-2282,91,90
1719834664.056,-2245,91,90
1719834664.056,-2174,91,90
1719834664.056,-2109,91,90
1719834664.056,-2077,91,90
1719834664.056,-2084,91,90
1719834664.056,-2119,91,90
1719834664.056,-2160,91,90
1719834664.056,-2176,91,90
1719834664.056,-2140,91,90
1719834664.056,-2054,91,90
1719834664.056,-1944,91,90
1719834664.056,-1850,91,90
1719834664.056,-1800,91,90
1719834664.056,-1797,91,90
1719834664.086,-1822,91,90
1719834664.086,-1853,91,90
1719834664.086,-1873,91,90
1719834664.086,-1869,91,90
1719834664.086,-1830,91,90
1719834664.086,-1760,91,90
1719834664.086,-1680,91,90
1719834664.086,-1618,91,90
1719834664.086,-1592,91,90
1719834664.086,-1592,91,90
1719834664.086,-1593,91,90
1719834664.086,-1578,91,90
1719834664.086,-1548,91,90
1719834664.086,-1514,91,90
1719834664.086,-1482,91,90
1719834664.117,-1453,91,90
1719834664.117,-1424,91,90
1719834664.117,-1395,91,90
1719834664.117,-1368,91,90
1719834664.117,-1343,91,90
1719834664.117,-1319,91,90
1719834664.117,-1301,91,90
1719834664.117,-1286,91,90
1719834664.117,-1271,91,90
1719834664.117,-1248,91,90
1719834664.117,-1219,91,90
1719834664.117,-1193,91,90
1719834664.117,-1176,91,90
1719834664.117,-1168,91,90
1719834664.117,-1158,91,90
1719834664.117,-1142,91,90
1719834664.117,-1126,91,90
1719834664.117,-1116,91,90
1719834664.117,-1110,91,90
1719834664.117,-1105,91,90
1719834664.117,-1098,91,90
1719834664.117,-1090,91,90
1719834664.117,-1083,91,90
1719834664.148,-1076,91,90
1719834664.148,-1071,91,90
1719834664.148,-1072,91,90
1719834664.148,-1077,91,90
1719834664.148,-1078,91,90
1719834664.148,-1066,91,90
1719834664.148,-1046,91,90
1719834664.148,-1034,91,90
1719834664.148,-1043,91,90
1719834664.148,-1065,91,90
1719834664.148,-1082,91,90
1719834664.148,-1082,91,90
1719834664.148,-1076,91,90
1719834664.148,-1080,91,90
1719834664.148,-1097,91,90
1719834664.18,-1118,91,90
1719834664.18,-1133,91,90
1719834664.18,-1141,91,90
1719834664.18,-1147,91,90
1719834664.18,-1154,91,90
1719834664.18,-1161,91,90
1719834664.18,-1166,91,90
1719834664.18,-1169,91,90
1719834664.18,-1174,91,90
1719834664.18,-1181,91,90
1719834664.18,-1188,91,90
1719834664.18,-1193,91,90
1719834664.18,-1195,91,90
1719834664.18,-1196,91,90
1719834664.18,-1197,91,90
1719834664.211,-1199,91,90
1719834664.211,-1197,91,90
1719834664.211,-1186,91,90
1719834664.211,-1165,91,90
1719834664.211,-1138,91,90
1719834664.211,-1111,91,90
1719834664.211,-1079,91,90
1719834664.211,-1036,91,90
1719834664.211,-978,91,90
1719834664.211,-919,91,90
1719834664.211,-869,91,90
1719834664.211,-827,91,90
1719834664.211,-776,91,90
1719834664.211,-707,91,90
1719834664.211,-629,91,90
1719834664.242,-562,91,90
1719834664.242,-517,91,90
1719834664.242,-484,91,90
1719834664.242,-441,91,90
1719834664.242,-381,91,90
1719834664.242,-317,91,90
1719834664.242,-267,91,90
1719834664.242,-238,91,90
1719834664.242,-216,91,90
1719834664.242,-185,91,90
1719834664.242,-145,91,90
1719834664.242,-105,91,90
1719834664.242,-76,91,90
1719834664.242,-56,91,90
1719834664.242,-35,91,90
1719834664.273,-8,91,90
1719834664.273,18,91,90
1719834664.273,35,91,90
1719834664.273,44,91,90
1719834664.273,54,91,90
1719834664.273,71,91,90
1719834664.273,86,91,90
1719834664.273,90,91,90
1719834664.273,87,91,90
1719834664.273,90,91,90
1719834664.273,108,91,90
1719834664.273,135,91,90
1719834664.273,151,91,90
1719834664.273,150,91,90
1719834664.273,143,91,90
1719834664.304,146,91,90
1719834664.304,161,91,90
1719834664.304,177,91,90
1719834664.304,179,91,90
1719834664.304,168,91,90
1719834664.304,155,91,90
1719834664.304,151,91,90
1719834664.304,157,91,90
1719834664.304,164,91,90
1719834664.304,167,91,90
1719834664.304,165,91,90
1719834664.304,160,91,90
1719834664.304,157,91,90
1719834664.304,155,91,90
1719834664.304,156,91,90
1719834664.336,158,91,90
1719834664.336,159,91,90
1719834664.336,159,91,90
1719834664.336,159,91,90
1719834664.336,155,91,90
1719834664.336,148,91,90
1719834664.336,140,91,90
1719834664.336,131,91,90
1719834664.336,123,91,90
1719834664.336,114,91,90
1719834664.336,105,91,90
1719834664.336,95,91,90
1719834664.336,84,91,90
1719834664.336,71,91,90
1719834664.336,58,91,90
1719834664.367,53,91,90
1719834664.367,60,91,90
1719834664.367,73,91,90
1719834664.367,79,91,90
1719834664.367,72,91,90
1719834664.367,61,91,90
1719834664.367,61,91,90
1719834664.367,74,91,90
1719834664.367,85,91,90
1719834664.367,80,91,90
1719834664.367,63,91,90
1719834664.367,57,91,90
1719834664.367,70,91,90
1719834664.367,93,91,90
1719834664.367,103,91,90
1719834664.367,95,91,90
1719834664.367,81,91,90
1719834664.367,78,91,90
1719834664.367,88,91,90
1719834664.367,96,91,90
1719834664.398,90,91,90
1719834664.398,70,91,90
1719834664.398,47,91,90
1719834664.398,32,91,90
1719834664.398,27,91,90
1719834664.398,28,91,90
1719834664.398,29,91,90
1719834664.398,25,91,90
1719834664.398,19,91,90
1719834664.398,14,91,90
1719834664.398,13,91,90
1719834664.398,19,91,90
1719834664.398,29,91,90
1719834664.398,36,91,90
1719834664.398,33,91,90
1719834664.43,19,91,90
1719834664.43,-1,91,90
1719834664.43,-14,91,90
1719834664.43,-11,91,90
1719834664.43,5,91,90
1719834664.43,18,91,90
1719834664.43,18,91,90
1719834664.43,10,91,90
1719834664.43,5,91,90
1719834664.43,12,91,90
1719834664.43,25,91,90
1719834664.43,33,91,90
1719834664.43,28,91,90
1719834664.43,17,91,90
1719834664.43,8,91,90
1719834664.46,5,91,90
1719834664.46,4,91,90
1719834664.46,4,91,90
1719834664.46,5,91,90
1719834664.46,9,91,90
1719834664.46,12,91,90
1719834664.46,13,91,90
1719834664.46,10,91,90
1719834664.46,5,91,90
1719834664.46,0,91,90
1719834664.46,-5,91,90
1719834664.46,-12,91,90
1719834664.46,-21,91,90
1719834664.46,-32,91,90
1719834664.46,-44,91,90
1719834664.491,-52,91,90
1719834664.491,-52,91,90
1719834664.491,-44,91,90
1719834664.491,-35,91,90
1719834664.491,-28,91,90
1719834664.491,-25,91,90
1719834664.491,-18,91,90
1719834664.491,-7,91,90
1719834664.491,3,91,90
1719834664.491,4,91,90
1719834664.491,-2,91,90
1719834664.491,-4,91,90
1719834664.491,3,91,90
1719834664.491,12,91,90
1719834664.491,11,91,90
1719834664.522,-3,91,90
1719834664.522,-15,91,90
1719834664.522,-16,91,90
1719834664.522,-9,91,90
1719834664.522,-6,91,90
1719834664.522,-12,91,90
1719834664.522,-20,91,90
1719834664.522,-21,91,90
1719834664.522,-17,91,90
1719834664.522,-17,91,90
1719834664.522,-23,91,90
1719834664.522,-31,91,90
1719834664.522,-36,91,90
1719834664.522,-42,91,90
1719834664.522,-50,91,90
1719834664.553,-58,91,90
1719834664.553,-56,91,90
1719834664.553,-44,91,90
1719834664.553,-25,91,90
1719834664.553,-8,91,90
1719834664.553,12,91,90
1719834664.553,43,91,90
1719834664.553,87,91,90
1719834664.553,131,91,90
1719834664.553,160,91,90
1719834664.553,172,91,90
1719834664.553,177,91,90
1719834664.553,186,91,90
1719834664.553,191,91,90
1719834664.553,179,91,90
1719834664.583,148,91,90
1719834664.583,119,91,90
1719834664.583,107,91,90
1719834664.583,108,91,90
1719834664.583,101,91,90
1719834664.583,76,91,90
1719834664.583,52,91,90
1719834664.583,46,91,90
1719834664.583,55,91,90
1719834664.583,54,91,90
1719834664.583,26,91,90
1719834664.583,-20,91,90
1719834664.583,-58,91,90
1719834664.583,-77,91,90
1719834664.583,-83,91,90
1719834664.614,-91,91,90
1719834664.614,-105,91,90
1719834664.614,-118,91,90
1719834664.614,-123,91,90
1719834664.614,-117,91,90
1719834664.614,-103,91,90
1719834664.614,-86,91,90
1719834664.614,-73,91,90
1719834664.614,-70,91,90
1719834664.614,-74,91,90
1719834664.614,-75,91,90
1719834664.614,-69,91,90
1719834664.614,-60,91,90
1719834664.614,-54,91,90
1719834664.614,-52,91,90
1719834664.614,-47,91,90
1719834664.614,-36,91,90
1719834664.614,-25,91,90
1719834664.614,-23,91,90
1719834664.614,-31,91,90
1719834664.614,-42,91,90
1719834664.614,-45,91,90
1719834664.645,-42,91,90
1719834664.645,-42,91,90
1719834664.645,-54,91,90
1719834664.645,-73,91,90
1719834664.645,-85,91,90
1719834664.645,-77,91,90
1719834664.645,-50,91,90
1719834664.645,-16,91,90
1719834664.645,16,91,90
1719834664.645,54,91,90
1719834664.645,122,91,90
1719834664.645,213,91,90
1719834664.645,280,91,90
1719834664.645,287,91,90
1719834664.645,250,91,90
1719834664.677,218,91,90
1719834664.677,197,91,90
1719834664.677,112,91,90
1719834664.677,-103,91,90
1719834664.677,-407,91,90
1719834664.677,-648,91,90
1719834664.677,-664,91,90
1719834664.677,-377,91,90
1719834664.707,232,91,90
1719834664.707,1191,91,90
1719834664.707,2554,91,90
1719834664.707,4318,91,90
1719834664.707,6350,91,90
1719834664.707,8412,91,90
1719834664.707,10272,91,90
1719834664.707,11797,91,90
1719834664.707,12930,91,90
1719834664.707,13576,91,90
1719834664.707,13523,91,90
1719834664.707,12535,91,90
1719834664.707,10589,91,90
1719834664.707,8034,91,90
1719834664.707,5461,91,90
1719834664.707,3320,91,90
1719834664.707,1646,91,90
1719834664.707,190,91,90
1719834664.707,-1178,91,90
1719834664.707,-2237,91,90
1719834664.707,-2639,91,90
1719834664.707,-2309,91,90
1719834664.737,-1593,85,90
1719834664.737,-979,85,90
1719834664.737,-727,85,90
1719834664.737,-763,85,90
1719834664.737,-887,85,90
1719834664.737,-1005,85,90
1719834664.737,-1154,85,90
1719834664.737,-1372,85,90
1719834664.737,-1632,85,90
1719834664.737,-1874,85,90
1719834664.737,-2060,85,90
1719834664.737,-2187,85,90
1719834664.737,-2253,85,90
1719834664.737,-2260,85,90
1719834664.737,-2217,85,90
1719834664.768,-2150,85,90
1719834664.768,-2094,85,90
1719834664.768,-2072,85,90
1719834664.768,-2088,85,90
1719834664.768,-2120,85,90
1719834664.768,-2142,85,90
1719834664.768,-2129,85,90
1719834664.768,-2073,85,90
1719834664.768,-1982,85,90
1719834664.768,-1876,85,90
1719834664.768,-1785,85,90
1719834664.768,-1734,85,90
1719834664.768,-1730,85,90
1719834664.768,-1755,85,90
1719834664.768,-1778,85,90
1719834664.799,-1776,85,90
1719834664.799,-1745,85,90
1719834664.799,-1692,85,90
1719834664.799,-1632,85,90
1719834664.799,-1575,85,90
1719834664.799,-1532,85,90
1719834664.799,-1510,85,90
1719834664.799,-1514,85,90
1719834664.799,-1534,85,90
1719834664.799,-1550,85,90
1719834664.799,-1540,85,90
1719834664.799,-1502,85,90
1719834664.799,-1452,85,90
1719834664.799,-1413,85,90
1719834664.799,-1391,85,90
1719834664.83,-1375,85,90
1719834664.83,-1347,85,90
1719834664.83,-1311,85,90
1719834664.83,-1281,85,90
1719834664.83,-1271,85,90
1719834664.83,-1275,85,90
1719834664.83,-1273,85,90
1719834664.83,-1255,85,90
1719834664.83,-1228,85,90
1719834664.83,-1209,85,90
1719834664.83,-1203,85,90
1719834664.83,-1201,85,90
1719834664.83,-1191,85,90
1719834664.83,-1173,85,90
1719834664.83,-1156,85,90
1719834664.86,-1146,85,90
1719834664.86,-1143,85,90
1719834664.86,-1140,85,90
1719834664.86,-1134,85,90
1719834664.86,-1126,85,90
1719834664.86,-1118,85,90
1719834664.86,-1117,85,90
1719834664.86,-1125,85,90
1719834664.86,-1138,85,90
1719834664.86,-1144,85,90
1719834664.86,-1134,85,90
1719834664.86,-1111,85,90
1719834664.86,-1093,85,90
1719834664.86,-1093,85,90
1719834664.86,-1106,85,90
1719834664.86,-1112,85,90
1719834664.86,-1100,85,90
1719834664.86,-1077,85,90
1719834664.86,-1062,85,90
1719834664.86,-1063,85,90
1719834664.86,-1072,85,90
1719834664.86,-1077,85,90
1719834664.86,-1076,85,90
1719834664.891,-1076,85,90
1719834664.891,-1079,85,90
1719834664.891,-1081,85,90
1719834664.891,-1079,85,90
1719834664.891,-1078,85,90
1719834664.891,-1084,85,90
1719834664.891,-1100,85,90
1719834664.923,-1115,85,90
1719834664.923,-1120,85,90
1719834664.923,-1115,85,90
1719834664.923,-1108,85,90
1719834664.923,-1105,85,90
1719834664.923,-1104,85,90
1719834664.923,-1095,85,90
1719834664.923,-1071,85,90
1719834664.923,-1034,85,90
1719834664.923,-991,85,90
1719834664.923,-952,85,90
1719834664.923,-918,85,90
1719834664.923,-882,85,90
1719834664.923,-835,85,90
1719834664.923,-779,85,90
1719834664.954,-723,85,90
1719834664.954,-674,85,90
1719834664.954,-628,85,90
1719834664.954,-580,85,90
1719834664.954,-523,85,90
1719834664.954,-462,85,90
1719834664.954,-400,85,90
1719834664.954,-341,85,90
1719834664.954,-288,85,90
1719834664.954,-242,85,90
1719834664.954,-196,85,90
1719834664.954,-144,85,90
1719834664.954,-82,85,90
1719834664.954,-20,85,90
1719834664.954,25,85,90
1719834664.954,52,85,90
1719834664.954,74,85,90
1719834664.954,110,85,90
1719834664.954,157,85,90
1719834664.954,199,85,90
1719834664.954,224,85,90
1719834664.954,236,85,90
1719834664.954,255,85,90
1719834664.984,286,85,90
1719834664.984,317,85,90
1719834664.984,337,85,90
1719834664.984,347,85,90
1719834664.984,360,85,90
1719834664.984,380,85,90
1719834664.984,401,85,90
1719834664.984,414,85,90
1719834664.984,422,85,90
1719834664.984,430,85,90
1719834664.984,442,85,90
1719834664.984,452,85,90
1719834664.984,457,85,90
1719834664.984,461,85,90
1719834664.984,465,85,90
1719834665.015,464,85,90
1719834665.015,452,85,90
1719834665.015,437,85,90
1719834665.015,432,85,90
1719834665.015,442,85,90
1719834665.015,455,85,90
1719834665.015,455,85,90
1719834665.015,442,85,90
1719834665.015,432,85,90
1719834665.015,439,85,90
1719834665.015,460,85,90
1719834665.015,476,85,90
1719834665.015,475,85,90
1719834665.015,461,85,90
1719834665.015,442,85,90
1719834665.046,427,85,90
1719834665.046,416,85,90
1719834665.046,405,85,90
1719834665.046,391,85,90
1719834665.046,374,85,90
1719834665.046,358,85,90
1719834665.046,348,85,90
1719834665.077,347,85,90
1719834665.077,349,85,90
1719834665.077,347,85,90
1719834665.077,341,85,90
1719834665.077,336,85,90
1719834665.077,337,85,90
1719834665.077,340,85,90
1719834665.077,337,85,90
1719834665.077,325,85,90
1719834665.077,313,85,90
1719834665.077,308,85,90
1719834665.077,310,85,90
1719834665.077,309,85,90
1719834665.077,299,85,90
1719834665.077,284,85,90
1719834665.077,272,85,90
1719834665.077,267,85,90
1719834665.077,264,85,90
1719834665.077,256,85,90
1719834665.077,242,85,90
1719834665.077,232,85,90
1719834665.077,229,85,90
1719834665.077,229,85,90
1719834665.108,226,85,90
1719834665.108,220,85,90
1719834665.108,217,85,90
1719834665.108,223,85,90
1719834665.108,234,85,90
1719834665.108,241,85,90
1719834665.108,240,85,90
1719834665.108,238,85,90
1719834665.108,238,85,90
1719834665.108,238,85,90
1719834665.108,231,85,90
1719834665.108,214,85,90
1719834665.108,195,85,90
1719834665.108,186,85,90
1719834665.108,187,85,90
1719834665.139,189,85,90
1719834665.139,183,85,90
1719834665.139,171,85,90
1719834665.139,164,85,90
1719834665.139,167,85,90
1719834665.139,180,85,90
1719834665.139,191,85,90
1719834665.139,197,85,90
1719834665.139,196,85,90
1719834665.139,192,85,90
1719834665.139,188,85,90
1719834665.139,187,85,90
1719834665.139,189,85,90
1719834665.139,189,85,90
1719834665.139,184,85,90
1719834665.17,174,85,90
1719834665.17,172,85,90
1719834665.17,185,85,90
1719834665.17,206,85,90
1719834665.17,217,85,90
1719834665.17,209,85,90
1719834665.17,196,85,90
1719834665.17,195,85,90
1719834665.17,209,85,90
1719834665.17,218,85,90
1719834665.17,209,85,90
1719834665.17,187,85,90
1719834665.17,169,85,90
1719834665.17,167,85,90
1719834665.17,173,85,90
1719834665.2,174,85,90
1719834665.2,168,85,90
1719834665.2,163,85,90
1719834665.2,164,85,90
1719834665.2,170,85,90
1719834665.2,175,85,90
1719834665.2,175,85,90
1719834665.2,172,85,90
1719834665.2,168,85,90
1719834665.2,166,85,90
1719834665.2,165,85,90
1719834665.2,162,85,90
1719834665.2,155,85,90
1719834665.2,145,85,90
1719834665.2,141,85,90
1719834665.231,142,85,90
1719834665.231,143,85,90
1719834665.231,134,85,90
1719834665.231,122,85,90
1719834665.231,118,85,90
1719834665.231,130,85,90
1719834665.231,147,85,90
1719834665.231,156,85,90
1719834665.231,150,85,90
1719834665.231,142,85,90
1719834665.231,145,85,90
1719834665.231,160,85,90
1719834665.231,172,85,90
1719834665.231,170,85,90
1719834665.231,152,85,90
1719834665.231,133,85,90
1719834665.231,125,85,90
1719834665.231,128,85,90
1719834665.231,134,85,90
1719834665.231,133,85,90
1719834665.231,121,85,90
1719834665.231,108,85,90
1719834665.262,100,85,90
1719834665.262,101,85,90
1719834665.262,99,85,90
1719834665.262,89,85,90
1719834665.262,77,85,90
1719834665.262,80,85,90
1719834665.262,105,85,90
1719834665.262,145,85,90
1719834665.293,187,85,90
1719834665.293,225,85,90
1719834665.293,262,85,90
1719834665.293,303,85,90
1719834665.293,343,85,90
1719834665.293,371,85,90
1719834665.293,380,85,90
1719834665.293,374,85,90
1719834665.293,359,85,90
1719834665.293,340,85,90
1719834665.293,315,85,90
1719834665.293,285,85,90
1719834665.293,260,85,90
1719834665.293,248,85,90
1719834665.293,252,85,90
1719834665.324,260,85,90
1719834665.324,260,85,90
1719834665.324,245,85,90
1719834665.324,224,85,90
1719834665.324,206,85,90
1719834665.324,194,85,90
1719834665.324,175,85,90
1719834665.324,143,85,90
1719834665.324,102,85,90
1719834665.324,67,85,90
1719834665.324,47,85,90
1719834665.324,39,85,90
1719834665.324,33,85,90
1719834665.324,25,85,90
1719834665.324,23,85,90
1719834665.324,34,85,90
1719834665.324,53,85,90
1719834665.324,66,85,90
1719834665.324,63,85,90
1719834665.324,52,85,90
1719834665.324,48,85,90
1719834665.324,56,85,90
1719834665.355,68,85,90
1719834665.355,67,85,90
1719834665.355,52,85,90
1719834665.355,36,85,90
1719834665.355,39,85,90
1719834665.355,57,85,90
1719834665.355,73,85,90
1719834665.355,72,85,90
1719834665.355,62,85,90
1719834665.355,63,85,90
1719834665.355,80,85,90
1719834665.355,99,85,90
1719834665.355,101,85,90
1719834665.355,89,85,90
1719834665.386,79,85,90
1719834665.386,84,85,90
1719834665.386,97,85,90
1719834665.386,114,85,90
1719834665.386,136,85,90
1719834665.386,170,85,90
1719834665.386,223,85,90
1719834665.386,281,85,90
1719834665.386,315,85,90
1719834665.386,307,85,90
1719834665.386,281,85,90
1719834665.386,267,85,90
1719834665.386,259,85,90
1719834665.417,196,85,90
1719834665.417,22,85,90
1719834665.417,-233,85,90
1719834665.417,-449,85,90
1719834665.417,-487,85,90
1719834665.417,-284,85,90
1719834665.417,166,85,90
1719834665.417,895,85,90
1719834665.417,1998,85,90
1719834665.417,3526,85,90
1719834665.417,5345,85,90
1719834665.417,7166,85,90
1719834665.417,8733,85,90
1719834665.417,9995,85,90
1719834665.417,11025,85,90
1719834665.448,11768,83,88
1719834665.448,11915,83,88
1719834665.448,11117,83,88
1719834665.448,9349,83,88
1719834665.448,7048,83,88
1719834665.448,4835,83,88
1719834665.448,3065,83,88
1719834665.448,1655,83,88
1719834665.448,346,83,88
1719834665.448,-914,83,88
1719834665.448,-1862,83,88
1719834665.448,-2193,83,88
1719834665.448,-1889,83,88
1719834665.448,-1258,83,88
1719834665.448,-695,83,88
1719834665.448,-414,83,88
1719834665.448,-387,83,88
1719834665.448,-478,83,88
1719834665.448,-597,83,88
1719834665.448,-732,83,88
1719834665.448,-894,83,88
1719834665.448,-1078,83,88
1719834665.448,-1267,83,88
1719834665.479,-1442,83,88
1719834665.479,-1585,83,88
1719834665.479,-1675,83,88
1719834665.479,-1706,83,88
1719834665.479,-1690,83,88
1719834665.479,-1655,83,88
1719834665.479,-1629,83,88
1719834665.51,-1629,83,88
1719834665.51,-1655,83,88
1719834665.51,-1689,83,88
1719834665.51,-1710,83,88
1719834665.51,-1697,83,88
1719834665.51,-1644,83,88
1719834665.51,-1559,83,88
1719834665.51,-1469,83,88
1719834665.51,-1406,83,88
1719834665.51,-1386,83,88
1719834665.51,-1402,83,88
1719834665.51,-1430,83,88
1719834665.51,-1446,83,88
1719834665.51,-1442,83,88
1719834665.51,-1422,83,88
1719834665.51,-1388,83,88
1719834665.51,-1341,83,88
1719834665.51,-1286,83,88
1719834665.51,-1237,83,88
1719834665.51,-1210,83,88
1719834665.51,-1210,83,88
1719834665.51,-1219,83,88
1719834665.51,-1213,83,88
1719834665.541,-1181,83,88
1719834665.541,-1135,83,88
1719834665.541,-1098,83,88
1719834665.541,-1080,83,88
1719834665.541,-1070,83,88
1719834665.541,-1052,83,88
1719834665.541,-1026,83,88
1719834665.541,-1004,83,88
1719834665.541,-992,83,88
1719834665.541,-984,83,88
1719834665.541,-969,83,88
1719834665.541,-946,83,88
1719834665.541,-922,83,88
1719834665.541,-900,83,88
1719834665.541,-877,83,88
1719834665.572,-851,83,88
1719834665.572,-831,83,88
1719834665.572,-822,83,88
1719834665.572,-820,83,88
1719834665.572,-812,83,88
1719834665.572,-797,83,88
1719834665.572,-783,83,88
1719834665.572,-777,83,88
1719834665.572,-775,83,88
1719834665.572,-767,83,88
1719834665.572,-753,83,88
1719834665.572,-742,83,88
1719834665.572,-737,83,88
1719834665.572,-737,83,88
1719834665.572,-735,83,88
1719834665.603,-733,83,88
1719834665.603,-735,83,88
1719834665.603,-743,83,88
1719834665.603,-754,83,88
1719834665.603,-768,83,88
1719834665.603,-787,83,88
1719834665.603,-810,83,88
1719834665.603,-828,83,88
1719834665.603,-832,83,88
1719834665.603,-826,83,88
1719834665.603,-829,83,88
1719834665.603,-849,83,88
1719834665.603,-880,83,88
1719834665.603,-904,83,88
1719834665.603,-910,83,88
1719834665.634,-905,83,88
1719834665.634,-907,83,88
1719834665.634,-923,83,88
1719834665.634,-950,83,88
1719834665.634,-975,83,88
1719834665.634,-992,83,88
1719834665.634,-1001,83,88
1719834665.634,-1004,83,88
1719834665.634,-1000,83,88
1719834665.634,-992,83,88
1719834665.634,-983,83,88
1719834665.634,-974,83,88
1719834665.634,-962,83,88
1719834665.634,-941,83,88
1719834665.634,-906,83,88
1719834665.665,-866,83,88
1719834665.665,-828,83,88
1719834665.665,-796,83,88
1719834665.665,-763,83,88
1719834665.665,-724,83,88
1719834665.665,-677,83,88
1719834665.665,-627,83,88
1719834665.665,-577,83,88
1719834665.665,-526,83,88
1719834665.665,-478,83,88
1719834665.665,-433,83,88
1719834665.665,-391,83,88
1719834665.665,-347,83,88
1719834665.665,-297,83,88
1719834665.665,-246,83,88
1719834665.697,-204,83,88
1719834665.697,-168,83,88
1719834665.697,-130,83,88
1719834665.697,-81,83,88
1719834665.697,-25,83,88
1719834665.697,22,83,88
1719834665.697,53,83,88
1719834665.697,76,83,88
1719834665.697,105,83,88
1719834665.697,143,83,88
1719834665.697,182,83,88
1719834665.697,211,83,88
1719834665.697,229,83,88
1719834665.697,244,83,88
1719834665.697,263,83,88
1719834665.727,286,83,88
1719834665.727,309,83,88
1719834665.727,328,83,88
1719834665.727,345,83,88
1719834665.727,360,83,88
1719834665.727,371,83,88
1719834665.727,379,83,88
1719834665.727,387,83,88
1719834665.727,398,83,88
1719834665.727,415,83,88
1719834665.727,433,83,88
1719834665.727,447,83,88
1719834665.727,453,83,88
1719834665.727,454,83,88
1719834665.727,457,83,88
1719834665.759,462,83,88
1719834665.759,467,83,88
1719834665.759,465,83,88
1719834665.759,452,83,88
1719834665.759,434,83,88
1719834665.759,419,83,88
1719834665.759,416,83,88
1719834665.759,423,83,88
1719834665.759,431,83,88
1719834665.759,431,83,88
1719834665.759,425,83,88
1719834665.759,424,83,88
1719834665.759,435,83,88
1719834665.759,451,83,88
1719834665.759,459,83,88
1719834665.789,454,83,88
1719834665.789,443,83,88
1719834665.789,438,83,88
1719834665.789,440,83,88
1719834665.789,442,83,88
1719834665.789,438,83,88
1719834665.789,428,83,88
1719834665.789,420,83,88
1719834665.789,416,83,88
1719834665.789,414,83,88
1719834665.789,411,83,88
1719834665.789,407,83,88
1719834665.789,401,83,88
1719834665.789,393,83,88
1719834665.789,385,83,88
1719834665.789,378,83,88
1719834665.789,374,83,88
1719834665.789,368,83,88
1719834665.789,358,83,88
1719834665.789,344,83,88
1719834665.789,331,83,88
1719834665.789,325,83,88
1719834665.82,322,83,88
1719834665.82,317,83,88
1719834665.82,305,83,88
1719834665.82,291,83,88
1719834665.82,281,83,88
1719834665.82,277,83,88
1719834665.82,270,83,88
1719834665.82,255,83,88
1719834665.82,239,83,88
1719834665.82,236,83,88
1719834665.82,250,83,88
1719834665.82,269,83,88
1719834665.82,275,83,88
1719834665.82,266,83,88
1719834665.82,256,83,88
1719834665.852,261,83,88
1719834665.852,280,83,88
1719834665.852,294,83,88
1719834665.852,288,83,88
1719834665.852,266,83,88
1719834665.852,248,83,88
1719834665.852,242,83,88
1719834665.852,244,83,88
1719834665.852,241,83,88
1719834665.852,230,83,88
1719834665.852,219,83,88
1719834665.852,217,83,88
1719834665.852,222,83,88
1719834665.852,226,83,88
1719834665.852,226,83,88
1719834665.883,227,83,88
1719834665.883,234,83,88
1719834665.883,244,83,88
1719834665.883,246,83,88
1719834665.883,237,83,88
1719834665.883,226,83,88
1719834665.883,224,83,88
1719834665.883,229,83,88
1719834665.883,228,83,88
1719834665.883,215,83,88
1719834665.883,199,83,88
1719834665.883,195,83,88
1719834665.883,200,83,88
1719834665.883,198,83,88
1719834665.883,182,83,88
1719834665.915,164,83,88
1719834665.915,162,83,88
1719834665.915,178,83,88
1719834665.915,191,83,88
1719834665.915,185,83,88
1719834665.915,168,83,88
1719834665.915,161,83,88
1719834665.915,174,83,88
1719834665.915,196,83,88
1719834665.915,206,83,88
1719834665.915,199,83,88
1719834665.915,186,83,88
1719834665.915,181,83,88
1719834665.915,183,83,88
1719834665.915,185,83,88
1719834665.945,180,83,88
1719834665.945,172,83,88
1719834665.945,166,83,88
1719834665.945,164,83,88
1719834665.945,168,83,88
1719834665.945,174,83,88
1719834665.945,180,83,88
1719834665.945,184,83,88
1719834665.945,189,83,88
1719834665.945,195,83,88
1719834665.945,200,83,88
1719834665.945,201,83,88
1719834665.945,196,83,88
1719834665.945,189,83,88
1719834665.945,187,83,88
1719834665.976,192,83,88
1719834665.976,197,83,88
1719834665.976,198,83,88
1719834665.976,193,83,88
1719834665.976,187,83,88
1719834665.976,181,83,88
1719834665.976,175,83,88
1719834665.976,170,83,88
1719834665.976,168,83,88
1719834665.976,168,83,88
1719834665.976,165,83,88
1719834665.976,152,83,88
1719834665.976,136,83,88
1719834665.976,131,83,88
1719834665.976,144,83,88
1719834666.007,161,83,88
1719834666.007,164,83,88
1719834666.007,149,83,88
1719834666.007,132,83,88
1719834666.007,128,83,88
1719834666.007,135,83,88
1719834666.007,137,83,88
1719834666.007,124,83,88
1719834666.007,104,83,88
1719834666.007,94,83,88
1719834666.007,102,83,88
1719834666.007,122,83,88
1719834666.007,150,83,88
1719834666.007,185,83,88
1719834666.007,232,83,88
1719834666.038,285,83,88
1719834666.038,333,83,88
1719834666.038,370,83,88
1719834666.038,398,83,88
1719834666.038,421,83,88
1719834666.038,437,83,88
1719834666.038,442,83,88
1719834666.038,432,83,88
1719834666.038,409,83,88
1719834666.038,381,83,88
1719834666.038,356,83,88
1719834666.038,342,83,88
1719834666.038,338,83,88
1719834666.038,338,83,88
1719834666.038,335,83,88
1719834666.069,326,83,88
1719834666.069,315,83,88
1719834666.069,304,83,88
1719834666.069,290,83,88
1719834666.069,271,83,88
1719834666.069,250,83,88
1719834666.069,228,83,88
1719834666.069,205,83,88
1719834666.069,176,83,88
1719834666.069,146,83,88
1719834666.069,129,83,88
1719834666.069,137,83,88
1719834666.069,159,83,88
1719834666.069,171,83,88
1719834666.069,162,83,88
1719834666.1,144,83,88
1719834666.1,139,83,88
1719834666.1,151,83,88
1719834666.1,165,83,88
1719834666.1,161,83,88
1719834666.1,138,83,88
1719834666.1,110,83,88
1719834666.1,94,83,88
1719834666.1,93,83,88
1719834666.1,97,83,88
1719834666.1,97,83,88
1719834666.1,90,83,88
1719834666.1,82,83,88
1719834666.1,77,83,88
1719834666.1,81,83,88
1719834666.132,94,83,88
1719834666.132,108,83,88
1719834666.132,115,83,88
1719834666.132,112,83,88
1719834666.132,107,83,88
1719834666.132,108,83,88
1719834666.132,115,83,88
1719834666.132,126,83,88
1719834666.132,147,83,88
1719834666.132,180,83,88
1719834666.132,225,83,88
1719834666.132,276,83,88
1719834666.132,316,83,88
1719834666.132,325,83,88
1719834666.132,304,83,88
1719834666.162,278,83,88
1719834666.162,266,83,88
1719834666.162,237,83,88
1719834666.162,129,83,88
1719834666.162,-82,83,88
1719834666.162,-327,83,88
1719834666.162,-469,83,88
1719834666.162,-397,83,88
1719834666.162,-89,83,88
1719834666.162,459,83,88
1719834666.162,1321,83,88
1719834666.162,2607,83,88
1719834666.162,4294,83,88
1719834666.162,6140,83,88
1719834666.162,7815,83,88
1719834666.162,9153,83,88
1719834666.162,10224,83,88
1719834666.162,11104,83,88
1719834666.162,11608,83,88
1719834666.162,11331,83,88
1719834666.162,10028,83,88
1719834666.162,7936,83,88
1719834666.162,5666,83,88
1719834666.193,3748,81,85
1719834666.193,2279,81,85
1719834666.193,1016,81,85
1719834666.193,-228,81,85
1719834666.193,-1325,81,85
1719834666.193,-1951,81,85
1719834666.193,-1927,81,85
1719834666.193,-1416,81,85
1719834666.193,-789,81,85
1719834666.193,-362,81,85
1719834666.193,-228,81,85
1719834666.193,-290,81,85
1719834666.193,-415,81,85
1719834666.193,-542,81,85
1719834666.193,-677,81,85
1719834666.225,-837,81,85
1719834666.225,-1016,81,85
1719834666.225,-1185,81,85
1719834666.225,-1327,81,85
1719834666.225,-1431,81,85
1719834666.225,-1496,81,85
1719834666.225,-1527,81,85
1719834666.225,-1525,81,85
1719834666.225,-1504,81,85
1719834666.225,-1494,81,85
1719834666.225,-1515,81,85
1719834666.225,-1563,81,85
1719834666.225,-1603,81,85
1719834666.225,-1603,81,85
1719834666.225,-1554,81,85
1719834666.257,-1474,81,85
1719834666.257,-1389,81,85
1719834666.257,-1321,81,85
1719834666.257,-1283,81,85
1719834666.257,-1273,81,85
1719834666.257,-1285,81,85
1719834666.257,-1304,81,85
1719834666.257,-1317,81,85
1719834666.257,-1310,81,85
1719834666.257,-1281,81,85
1719834666.257,-1235,81,85
1719834666.257,-1183,81,85
1719834666.257,-1135,81,85
1719834666.257,-1103,81,85
1719834666.257,-1085,81,85
1719834666.287,-1073,81,85
1719834666.287,-1058,81,85
1719834666.287,-1034,81,85
1719834666.287,-1006,81,85
1719834666.287,-977,81,85
1719834666.287,-949,81,85
1719834666.287,-922,81,85
1719834666.287,-897,81,85
1719834666.287,-878,81,85
1719834666.287,-864,81,85
1719834666.287,-848,81,85
1719834666.287,-827,81,85
1719834666.287,-805,81,85
1719834666.287,-787,81,85
1719834666.287,-767,81,85
1719834666.317,-740,81,85
1719834666.317,-709,81,85
1719834666.317,-688,81,85
1719834666.317,-683,81,85
1719834666.317,-683,81,85
1719834666.317,-671,81,85
1719834666.317,-644,81,85
1719834666.317,-620,81,85
1719834666.317,-616,81,85
1719834666.317,-626,81,85
1719834666.317,-630,81,85
1719834666.317,-618,81,85
1719834666.317,-599,81,85
1719834666.317,-585,81,85
1719834666.317,-583,81,85
1719834666.348,-589,81,85
1719834666.348,-597,81,85
1719834666.348,-608,81,85
1719834666.348,-620,81,85
1719834666.348,-633,81,85
1719834666.348,-648,81,85
1719834666.348,-664,81,85
1719834666.348,-681,81,85
1719834666.348,-694,81,85
1719834666.348,-704,81,85
1719834666.348,-719,81,85
1719834666.348,-739,81,85
1719834666.348,-757,81,85
1719834666.348,-764,81,85
1719834666.348,-768,81,85
1719834666.38,-783,81,85
1719834666.38,-815,81,85
1719834666.38,-850,81,85
1719834666.38,-872,81,85
1719834666.38,-880,81,85
1719834666.38,-889,81,85
1719834666.38,-906,81,85
1719834666.38,-924,81,85
1719834666.38,-931,81,85
1719834666.38,-932,81,85
1719834666.38,-935,81,85
1719834666.38,-942,81,85
1719834666.38,-938,81,85
1719834666.38,-915,81,85
1719834666.38,-885,81,85
1719834666.38,-869,81,85
1719834666.38,-868,81,85
1719834666.38,-864,81,85
1719834666.38,-838,81,85
1719834666.38,-796,81,85
1719834666.412,-757,81,85
1719834666.412,-727,81,85
1719834666.412,-699,81,85
1719834666.412,-662,81,85
1719834666.412,-616,81,85
1719834666.412,-569,81,85
1719834666.412,-522,81,85
1719834666.412,-471,81,85
1719834666.412,-416,81,85
1719834666.412,-365,81,85
1719834666.412,-322,81,85
1719834666.412,-284,81,85
1719834666.412,-245,81,85
1719834666.412,-201,81,85
1719834666.412,-156,81,85
1719834666.444,-117,81,85
1719834666.444,-82,81,85
1719834666.444,-46,81,85
1719834666.444,-10,81,85
1719834666.444,25,81,85
1719834666.444,54,81,85
1719834666.444,80,81,85
1719834666.444,105,81,85
1719834666.444,132,81,85
1719834666.444,157,81,85
1719834666.444,177,81,85
1719834666.444,191,81,85
1719834666.444,205,81,85
1719834666.444,225,81,85
1719834666.444,253,81,85
1719834666.475,280,81,85
1719834666.475,299,81,85
1719834666.475,310,81,85
1719834666.475,318,81,85
1719834666.475,328,81,85
1719834666.475,335,81,85
1719834666.475,340,81,85
1719834666.475,346,81,85
1719834666.475,358,81,85
1719834666.475,375,81,85
1719834666.475,388,81,85
1719834666.475,391,81,85
1719834666.475,393,81,85
1719834666.475,404,81,85
1719834666.475,424,81,85
1719834666.475,443,81,85
1719834666.475,450,81,85
1719834666.475,444,81,85
1719834666.475,435,81,85
1719834666.475,432,81,85
1719834666.475,435,81,85
1719834666.475,442,81,85
1719834666.506,450,81,85
1719834666.506,458,81,85
1719834666.506,464,81,85
1719834666.506,463,81,85
1719834666.506,458,81,85
1719834666.506,451,81,85
1719834666.506,444,81,85
1719834666.506,439,81,85
1719834666.537,435,81,85
1719834666.537,429,81,85
1719834666.537,418,81,85
1719834666.537,402,81,85
1719834666.537,388,81,85
1719834666.537,387,81,85
1719834666.537,401,81,85
1719834666.537,417,81,85
1719834666.537,424,81,85
1719834666.537,419,81,85
1719834666.537,411,81,85
1719834666.537,406,81,85
1719834666.537,403,81,85
1719834666.537,393,81,85
1719834666.537,384,81,85
1719834666.568,385,81,85
1719834666.568,394,81,85
1719834666.568,396,81,85
1719834666.568,378,81,85
1719834666.568,350,81,85
1719834666.568,335,81,85
1719834666.568,347,81,85
1719834666.568,368,81,85
1719834666.568,373,81,85
1719834666.568,354,81,85
1719834666.568,331,81,85
1719834666.568,322,81,85
1719834666.568,331,81,85
1719834666.568,342,81,85
1719834666.568,343,81,85
1719834666.568,335,81,85
1719834666.568,325,81,85
1719834666.568,319,81,85
1719834666.568,313,81,85
1719834666.568,305,81,85
1719834666.568,295,81,85
1719834666.568,285,81,85
1719834666.599,276,81,85
1719834666.599,268,81,85
1719834666.599,262,81,85
1719834666.599,257,81,85
1719834666.599,253,81,85
1719834666.599,251,81,85
1719834666.599,252,81,85
1719834666.599,254,81,85
1719834666.599,250,81,85
1719834666.599,238,81,85
1719834666.599,229,81,85
1719834666.599,227,81,85
1719834666.599,230,81,85
1719834666.599,225,81,85
1719834666.599,207,81,85
1719834666.63,190,81,85
1719834666.63,194,81,85
1719834666.63,215,81,85
1719834666.63,233,81,85
1719834666.63,228,81,85
1719834666.63,208,81,85
1719834666.63,195,81,85
1719834666.63,202,81,85
1719834666.63,214,81,85
1719834666.63,212,81,85
1719834666.63,195,81,85
1719834666.63,177,81,85
1719834666.63,172,81,85
1719834666.63,177,81,85
1719834666.63,181,81,85
1719834666.661,181,81,85
1719834666.661,179,81,85
1719834666.661,179,81,85
1719834666.661,178,81,85
1719834666.661,173,81,85
1719834666.661,165,81,85
1719834666.661,161,81,85
1719834666.661,161,81,85
1719834666.661,162,81,85
1719834666.661,160,81,85
1719834666.661,161,81,85
1719834666.661,165,81,85
1719834666.661,172,81,85
1719834666.661,175,81,85
1719834666.661,174,81,85
1719834666.692,173,81,85
1719834666.692,174,81,85
1719834666.692,173,81,85
1719834666.692,164,81,85
1719834666.692,149,81,85
1719834666.692,141,81,85
1719834666.692,141,81,85
1719834666.692,140,81,85
1719834666.692,129,81,85
1719834666.692,112,81,85
1719834666.692,110,81,85
1719834666.692,132,81,85
1719834666.692,161,81,85
1719834666.692,173,81,85
1719834666.692,162,81,85
1719834666.722,148,81,85
1719834666.722,154,81,85
1719834666.722,177,81,85
1719834666.722,194,81,85
1719834666.722,189,81,85
1719834666.722,169,81,85
1719834666.722,155,81,85
1719834666.722,155,81,85
1719834666.722,159,81,85
1719834666.722,156,81,85
1719834666.722,142,81,85
1719834666.722,130,81,85
1719834666.722,126,81,85
1719834666.722,129,81,85
1719834666.722,131,81,85
1719834666.753,128,81,85
1719834666.753,124,81,85
1719834666.753,120,81,85
1719834666.753,117,81,85
1719834666.753,109,81,85
1719834666.753,94,81,85
1719834666.753,75,81,85
1719834666.753,59,81,85
1719834666.753,53,81,85
1719834666.753,52,81,85
1719834666.753,53,81,85
1719834666.753,55,81,85
1719834666.753,66,81,85
1719834666.753,95,81,85
1719834666.753,138,81,85
1719834666.783,184,81,85
1719834666.783,222,81,85
1719834666.783,251,81,85
1719834666.783,280,81,85
1719834666.783,310,81,85
1719834666.783,333,81,85
1719834666.783,339,81,85
1719834666.783,328,81,85
1719834666.783,308,81,85
1719834666.783,287,81,85
1719834666.783,268,81,85
1719834666.783,247,81,85
1719834666.783,228,81,85
1719834666.783,221,81,85
1719834666.783,223,81,85
1719834666.814,222,81,85
1719834666.814,205,81,85
1719834666.814,177,81,85
1719834666.814,156,81,85
1719834666.814,153,81,85
1719834666.814,156,81,85
1719834666.814,143,81,85
1719834666.814,108,81,85
1719834666.814,68,81,85
1719834666.814,47,81,85
1719834666.814,46,81,85
1719834666.814,50,81,85
1719834666.814,44,81,85
1719834666.814,33,81,85
1719834666.814,30,81,85
1719834666.846,37,81,85
1719834666.846,45,81,85
1719834666.846,44,81,85
1719834666.846,38,81,85
1719834666.846,38,81,85
1719834666.846,46,81,85
1719834666.846,54,81,85
1719834666.846,53,81,85
1719834666.846,49,81,85
1719834666.846,53,81,85
1719834666.846,67,81,85
1719834666.846,79,81,85
1719834666.846,79,81,85
1719834666.846,71,81,85
1719834666.846,70,81,85
1719834666.846,83,81,85
1719834666.846,100,81,85
1719834666.846,103,81,85
1719834666.846,89,81,85
1719834666.846,74,81,85
1719834666.846,79,81,85
1719834666.846,100,81,85
1719834666.846,118,81,85
1719834666.878,123,81,85
1719834666.878,129,81,85
1719834666.878,155,81,85
1719834666.878,210,81,85
1719834666.878,277,81,85
1719834666.878,317,81,85
1719834666.878,307,81,85
1719834666.878,264,81,85
1719834666.878,229,81,85
1719834666.878,210,81,85
1719834666.878,155,81,85
1719834666.878,2,81,85
1719834666.878,-239,81,85
1719834666.878,-459,81,85
1719834666.878,-518,81,85
1719834666.909,-343,81,85
1719834666.909,65,81,85
1719834666.909,726,81,85
1719834666.909,1738,81,85
1719834666.909,3179,81,85
1719834666.909,4944,81,85
1719834666.909,6735,81,85
1719834666.909,8261,81,85
1719834666.909,9452,81,85
1719834666.909,10418,81,85
1719834666.909,11167,81,85
1719834666.909,11416,81,85
1719834666.909,10774,81,85
1719834666.909,9146,81,85
1719834666.909,6931,81,85
1719834666.94,4771,81,82
1719834666.94,3061,81,82
1719834666.94,1740,81,82
1719834666.94,525,81,82
1719834666.94,-681,81,82
1719834666.94,-1642,81,82
1719834666.94,-2041,81,82
1719834666.972,-1811,81,82
1719834666.972,-1217,81,82
1719834666.972,-644,81,82
1719834666.972,-334,81,82
1719834666.972,-295,81,82
1719834666.972,-397,81,82
1719834666.972,-524,81,82
1719834666.972,-645,81,82
1719834666.972,-776,81,82
1719834666.972,-934,81,82
1719834666.972,-1114,81,82
1719834666.972,-1292,81,82
1719834666.972,-1438,81,82
1719834666.972,-1531,81,82
1719834666.972,-1571,81,82
1719834666.972,-1573,81,82
1719834666.972,-1556,81,82
1719834666.972,-1540,81,82
1719834666.972,-1542,81,82
1719834666.972,-1570,81,82
1719834666.972,-1613,81,82
1719834666.972,-1647,81,82
1719834666.972,-1645,81,82
1719834667.004,-1595,81,82
1719834667.004,-1509,81,82
1719834667.004,-1419,81,82
1719834667.004,-1355,81,82
1719834667.004,-1330,81,82
1719834667.004,-1332,81,82
1719834667.004,-1341,81,82
1719834667.004,-1342,81,82
1719834667.004,-1333,81,82
1719834667.004,-1314,81,82
1719834667.004,-1285,81,82
1719834667.004,-1249,81,82
1719834667.004,-1210,81,82
1719834667.004,-1177,81,82
1719834667.004,-1151,81,82
1719834667.035,-1133,81,82
1719834667.035,-1122,81,82
1719834667.035,-1112,81,82
1719834667.035,-1095,81,82
1719834667.035,-1064,81,82
1719834667.035,-1022,81,82
1719834667.035,-979,81,82
1719834667.035,-944,81,82
1719834667.035,-920,81,82
1719834667.035,-905,81,82
1719834667.035,-894,81,82
1719834667.035,-879,81,82
1719834667.035,-854,81,82
1719834667.035,-821,81,82
1719834667.035,-788,81,82
1719834667.066,-766,81,82
1719834667.066,-754,81,82
1719834667.066,-734,81,82
1719834667.066,-698,81,82
1719834667.066,-654,81,82
1719834667.066,-627,81,82
1719834667.066,-623,81,82
1719834667.066,-628,81,82
1719834667.066,-621,81,82
1719834667.066,-602,81,82
1719834667.066,-585,81,82
1719834667.066,-586,81,82
1719834667.066,-599,81,82
1719834667.066,-608,81,82
1719834667.066,-609,81,82
1719834667.066,-606,81,82
1719834667.066,-608,81,82
1719834667.066,-612,81,82
1719834667.066,-614,81,82
1719834667.066,-612,81,82
1719834667.066,-614,81,82
1719834667.066,-624,81,82
1719834667.097,-640,81,82
1719834667.097,-655,81,82
1719834667.097,-667,81,82
1719834667.097,-682,81,82
1719834667.097,-706,81,82
1719834667.097,-735,81,82
1719834667.097,-761,81,82
1719834667.097,-776,81,82
1719834667.129,-788,81,82
1719834667.129,-804,81,82
1719834667.129,-828,81,82
1719834667.129,-857,81,82
1719834667.129,-881,81,82
1719834667.129,-900,81,82
1719834667.129,-920,81,82
1719834667.129,-944,81,82
1719834667.129,-970,81,82
1719834667.129,-991,81,82
1719834667.129,-1007,81,82
1719834667.129,-1018,81,82
1719834667.129,-1022,81,82
1719834667.129,-1017,81,82
1719834667.129,-1004,81,82
1719834667.161,-992,81,82
1719834667.161,-985,81,82
1719834667.161,-973,81,82
1719834667.161,-941,81,82
1719834667.161,-889,81,82
1719834667.161,-835,81,82
1719834667.161,-797,81,82
1719834667.161,-770,81,82
1719834667.161,-733,81,82
1719834667.161,-676,81,82
1719834667.161,-612,81,82
1719834667.161,-561,81,82
1719834667.161,-527,81,82
1719834667.161,-494,81,82
1719834667.161,-450,81,82
1719834667.161,-398,81,82
1719834667.161,-351,81,82
1719834667.161,-308,81,82
1719834667.161,-260,81,82
1719834667.161,-202,81,82
1719834667.161,-141,81,82
1719834667.161,-89,81,82
1719834667.192,-47,81,82
1719834667.192,-6,81,82
1719834667.192,40,81,82
1719834667.192,87,81,82
1719834667.192,125,81,82
1719834667.192,152,81,82
1719834667.192,173,81,82
1719834667.192,192,81,82
1719834667.192,208,81,82
1719834667.192,222,81,82
1719834667.192,241,81,82
1719834667.192,266,81,82
1719834667.192,293,81,82
1719834667.192,309,81,82
1719834667.192,313,81,82
1719834667.224,314,81,82
1719834667.224,329,81,82
1719834667.224,360,81,82
1719834667.224,394,81,82
1719834667.224,415,81,82
1719834667.224,421,81,82
1719834667.224,423,81,82
1719834667.224,432,81,82
1719834667.224,446,81,82
1719834667.224,455,81,82
1719834667.224,455,81,82
1719834667.224,452,81,82
1719834667.224,455,81,82
1719834667.224,463,81,82
1719834667.224,466,81,82
1719834667.255,459,81,82
1719834667.255,449,81,82
1719834667.255,448,81,82
1719834667.255,460,81,82
1719834667.255,475,81,82
1719834667.255,480,81,82
1719834667.255,470,81,82
1719834667.255,456,81,82
1719834667.255,450,81,82
1719834667.255,455,81,82
1719834667.255,465,81,82
1719834667.255,468,81,82
1719834667.255,462,81,82
1719834667.255,453,81,82
1719834667.255,445,81,82
1719834667.286,441,81,82
1719834667.286,436,81,82
1719834667.286,430,81,82
1719834667.286,425,81,82
1719834667.286,423,81,82
1719834667.286,420,81,82
1719834667.286,411,81,82
1719834667.286,399,81,82
1719834667.286,389,81,82
1719834667.286,384,81,82
1719834667.286,384,81,82
1719834667.286,387,81,82
1719834667.286,386,81,82
1719834667.286,378,81,82
1719834667.286,362,81,82
1719834667.286,344,81,82
1719834667.286,333,81,82
1719834667.286,338,81,82
1719834667.286,351,81,82
1719834667.286,358,81,82
1719834667.286,348,81,82
1719834667.286,331,81,82
1719834667.286,323,81,82
1719834667.316,331,81,82
1719834667.316,342,81,82
1719834667.316,338,81,82
1719834667.316,318,81,82
1719834667.316,298,81,82
1719834667.316,291,81,82
1719834667.316,295,81,82
1719834667.316,297,81,82
1719834667.316,291,81,82
1719834667.316,284,81,82
1719834667.316,283,81,82
1719834667.316,288,81,82
1719834667.316,289,81,82
1719834667.316,285,81,82
1719834667.316,278,81,82
1719834667.348,270,81,82
1719834667.348,257,81,82
1719834667.348,240,81,82
1719834667.348,225,81,82
1719834667.348,218,81,82
1719834667.348,216,81,82
1719834667.348,211,81,82
1719834667.348,204,81,82
1719834667.348,200,81,82
1719834667.348,204,81,82
1719834667.348,212,81,82
1719834667.348,216,81,82
1719834667.348,216,81,82
1719834667.348,217,81,82
1719834667.348,223,81,82
1719834667.381,226,81,82
1719834667.381,222,81,82
1719834667.381,215,81,82
1719834667.381,213,81,82
1719834667.381,219,81,82
1719834667.381,223,81,82
1719834667.381,219,81,82
1719834667.381,209,81,82
1719834667.381,203,81,82
1719834667.381,205,81,82
1719834667.381,209,81,82
1719834667.381,211,81,82
1719834667.412,207,81,82
1719834667.412,200,81,82
1719834667.412,194,81,82
1719834667.412,189,81,82
1719834667.412,186,81,82
1719834667.412,184,81,82
1719834667.412,181,81,82
1719834667.412,179,81,82
1719834667.412,176,81,82
1719834667.412,175,81,82
1719834667.412,177,81,82
1719834667.412,181,81,82
1719834667.412,185,81,82
1719834667.412,186,81,82
1719834667.412,184,81,82
1719834667.443,179,81,82
1719834667.443,174,81,82
1719834667.443,172,81,82
1719834667.443,172,81,82
1719834667.443,174,81,82
1719834667.443,177,81,82
1719834667.443,178,81,82
1719834667.443,173,81,82
1719834667.443,164,81,82
1719834667.443,158,81,82
1719834667.443,165,81,82
1719834667.443,184,81,82
1719834667.443,199,81,82
1719834667.443,196,81,82
1719834667.443,178,81,82
1719834667.474,168,81,82
1719834667.474,179,81,82
1719834667.474,204,81,82
1719834667.474,217,81,82
1719834667.474,207,81,82
1719834667.474,187,81,82
1719834667.474,179,81,82
1719834667.474,187,81,82
1719834667.474,198,81,82
1719834667.474,200,81,82
1719834667.474,194,81,82
1719834667.474,186,81,82
1719834667.474,181,81,82
1719834667.474,174,81,82
1719834667.474,165,81,82
1719834667.474,158,81,82
1719834667.474,158,81,82
1719834667.474,160,81,82
1719834667.474,156,81,82
1719834667.474,147,81,82
1719834667.474,139,81,82
1719834667.474,135,81,82
1719834667.506,133,81,82
1719834667.506,130,81,82
1719834667.506,126,81,82
1719834667.506,121,81,82
1719834667.506,113,81,82
1719834667.506,103,81,82
1719834667.506,92,81,82
1719834667.506,86,81,82
1719834667.506,87,81,82
1719834667.506,95,81,82
1719834667.506,108,81,82
1719834667.506,129,81,82
1719834667.506,165,81,82
1719834667.506,209,81,82
1719834667.506,251,81,82
1719834667.537,283,81,82
1719834667.537,310,81,82
1719834667.537,344,81,82
1719834667.537,388,81,82
1719834667.537,424,81,82
1719834667.537,433,81,82
1719834667.537,416,81,82
1719834667.537,391,81,82
1719834667.567,377,81,82
1719834667.567,376,81,82
1719834667.567,373,81,82
1719834667.567,357,81,82
1719834667.567,331,81,82
1719834667.567,307,81,82
1719834667.567,291,81,82
1719834667.567,281,81,82
1719834667.567,269,81,82
1719834667.567,250,81,82
1719834667.567,226,81,82
1719834667.567,197,81,82
1719834667.567,168,81,82
1719834667.567,141,81,82
1719834667.567,123,81,82
1719834667.597,115,81,82
1719834667.597,115,81,82
1719834667.597,116,81,82
1719834667.597,119,81,82
1719834667.597,123,81,82
1719834667.597,132,81,82
1719834667.597,142,81,82
1719834667.597,147,81,82
1719834667.597,148,81,82
1719834667.597,147,81,82
1719834667.597,148,81,82
1719834667.597,151,81,82
1719834667.597,154,81,82
1719834667.597,152,81,82
1719834667.597,147,81,82
1719834667.597,141,81,82
1719834667.597,139,81,82
1719834667.597,141,81,82
1719834667.597,142,81,82
1719834667.597,139,81,82
1719834667.597,135,81,82
1719834667.597,134,81,82
1719834667.628,139,81,82
1719834667.628,140,81,82
1719834667.628,132,81,82
1719834667.628,123,81,82
1719834667.628,122,81,82
1719834667.628,133,81,82
1719834667.628,150,81,82
1719834667.628,173,81,82
1719834667.628,204,81,82
1719834667.628,247,81,82
1719834667.628,300,81,82
1719834667.628,348,81,82
1719834667.628,367,81,82
1719834667.628,355,81,82
1719834667.628,334,81,82
1719834667.659,321,81,82
1719834667.659,290,81,82
1719834667.659,182,81,82
1719834667.659,-27,81,82
1719834667.659,-274,81,82
1719834667.659,-428,81,82
1719834667.659,-379,81,82
1719834667.659,-94,81,82
1719834667.659,427,81,82
1719834667.659,1238,81,82
1719834667.659,2439,81,82
1719834667.659,4033,81,82
1719834667.659,5824,81,82
1719834667.659,7503,81,82
1719834667.659,8869,81,82
1719834667.69,9941,80,81
1719834667.69,10796,80,81
1719834667.69,11312,80,81
1719834667.69,11141,80,81
1719834667.69,10014,80,81
1719834667.69,8076,80,81
1719834667.69,5868,80,81
1719834667.69,3934,80,81
1719834667.69,2444,80,81
1719834667.69,1194,80,81
1719834667.69,-29,80,81
1719834667.69,-1147,80,81
1719834667.69,-1846,80,81
1719834667.69,-1911,80,81
1719834667.69,-1463,80,81
1719834667.721,-860,80,81
1719834667.721,-427,80,81
1719834667.721,-272,80,81
1719834667.721,-312,80,81
1719834667.721,-425,80,81
1719834667.721,-556,80,81
1719834667.721,-700,80,81
1719834667.721,-858,80,81
1719834667.721,-1024,80,81
1719834667.721,-1190,80,81
1719834667.721,-1352,80,81
1719834667.721,-1489,80,81
1719834667.721,-1574,80,81
1719834667.721,-1598,80,81
1719834667.721,-1574,80,81
1719834667.753,-1539,80,81
1719834667.753,-1527,80,81
1719834667.753,-1551,80,81
1719834667.753,-1596,80,81
1719834667.753,-1631,80,81
1719834667.753,-1632,80,81
1719834667.753,-1589,80,81
1719834667.753,-1513,80,81
1719834667.753,-1430,80,81
1719834667.753,-1361,80,81
1719834667.753,-1321,80,81
1719834667.753,-1309,80,81
1719834667.753,-1316,80,81
1719834667.753,-1328,80,81
1719834667.753,-1331,80,81
1719834667.784,-1316,80,81
1719834667.784,-1282,80,81
1719834667.784,-1238,80,81
1719834667.784,-1192,80,81
1719834667.784,-1150,80,81
1719834667.784,-1114,80,81
1719834667.784,-1086,80,81
1719834667.784,-1070,80,81
1719834667.784,-1061,80,81
1719834667.784,-1050,80,81
1719834667.784,-1026,80,81
1719834667.784,-988,80,81
1719834667.784,-946,80,81
1719834667.784,-912,80,81
1719834667.784,-890,80,81
1719834667.815,-874,80,81
1719834667.815,-856,80,81
1719834667.815,-834,80,81
1719834667.815,-814,80,81
1719834667.815,-798,80,81
1719834667.815,-784,80,81
1719834667.815,-770,80,81
1719834667.815,-757,80,81
1719834667.815,-741,80,81
1719834667.815,-721,80,81
1719834667.815,-693,80,81
1719834667.815,-666,80,81
1719834667.815,-650,80,81
1719834667.815,-646,80,81
1719834667.815,-645,80,81
1719834667.846,-631,80,81
1719834667.846,-608,80,81
1719834667.846,-588,80,81
1719834667.846,-582,80,81
1719834667.846,-587,80,81
1719834667.846,-587,80,81
1719834667.846,-576,80,81
1719834667.846,-561,80,81
1719834667.846,-554,80,81
1719834667.846,-560,80,81
1719834667.846,-570,80,81
1719834667.846,-574,80,81
1719834667.846,-573,80,81
1719834667.846,-575,80,81
1719834667.846,-583,80,81
1719834667.877,-595,80,81
1719834667.877,-606,80,81
1719834667.877,-615,80,81
1719834667.877,-627,80,81
1719834667.877,-646,80,81
1719834667.877,-669,80,81
1719834667.877,-689,80,81
1719834667.877,-705,80,81
1719834667.877,-722,80,81
1719834667.877,-746,80,81
1719834667.877,-776,80,81
1719834667.877,-805,80,81
1719834667.877,-827,80,81
1719834667.877,-843,80,81
1719834667.877,-860,80,81
1719834667.877,-879,80,81
1719834667.877,-892,80,81
1719834667.877,-894,80,81
1719834667.877,-891,80,81
1719834667.877,-890,80,81
1719834667.877,-893,80,81
1719834667.877,-890,80,81
1719834667.877,-876,80,81
1719834667.909,-858,80,81
1719834667.909,-847,80,81
1719834667.909,-840,80,81
1719834667.909,-822,80,81
1719834667.909,-780,80,81
1719834667.909,-723,80,81
1719834667.909,-672,80,81
1719834667.909,-637,80,81
1719834667.909,-607,80,81
1719834667.909,-564,80,81
1719834667.909,-501,80,81
1719834667.909,-435,80,81
1719834667.909,-380,80,81
1719834667.909,-339,80,81
1719834667.909,-299,80,81
1719834667.939,-251,80,81
1719834667.939,-196,80,81
1719834667.939,-142,80,81
1719834667.939,-91,80,81
1719834667.939,-42,80,81
1719834667.939,5,80,81
1719834667.939,48,80,81
1719834667.939,86,80,81
1719834667.939,120,80,81
1719834667.939,154,80,81
1719834667.939,184,80,81
1719834667.939,207,80,81
1719834667.939,226,80,81
1719834667.939,248,80,81
1719834667.939,275,80,81
1719834667.97,302,80,81
1719834667.97,322,80,81
1719834667.97,335,80,81
1719834667.97,350,80,81
1719834667.97,370,80,81
1719834667.97,387,80,81
1719834667.97,394,80,81
1719834667.97,394,80,81
1719834667.97,394,80,81
1719834667.97,401,80,81
1719834667.97,411,80,81
1719834667.97,418,80,81
1719834667.97,425,80,81
1719834667.97,434,80,81
1719834667.97,439,80,81
1719834668.001,433,80,81
1719834668.001,420,80,81
1719834668.001,416,80,81
1719834668.001,427,80,81
1719834668.001,443,80,81
1719834668.001,449,80,81
1719834668.001,441,80,81
1719834668.001,435,80,81
1719834668.001,446,80,81
1719834668.001,467,80,81
1719834668.001,481,80,81
1719834668.001,479,80,81
1719834668.001,467,80,81
1719834668.001,456,80,81
1719834668.001,452,80,81
1719834668.033,453,80,81
1719834668.033,452,80,81
1719834668.033,449,80,81
1719834668.033,442,80,81
1719834668.033,434,80,81
1719834668.033,432,80,81
1719834668.033,438,80,81
1719834668.033,450,80,81
1719834668.033,459,80,81
1719834668.033,459,80,81
1719834668.033,453,80,81
1719834668.033,449,80,81
1719834668.033,448,80,81
1719834668.033,446,80,81
1719834668.033,440,80,81
1719834668.064,431,80,81
1719834668.064,426,80,81
1719834668.064,426,80,81
1719834668.064,426,80,81
1719834668.064,420,80,81
1719834668.064,411,80,81
1719834668.064,407,80,81
1719834668.064,409,80,81
1719834668.064,412,80,81
1719834668.064,406,80,81
1719834668.064,392,80,81
1719834668.064,379,80,81
1719834668.064,376,80,81
1719834668.064,381,80,81
1719834668.064,380,80,81
1719834668.064,372,80,81
1719834668.064,365,80,81
1719834668.064,367,80,81
1719834668.064,373,80,81
1719834668.064,370,80,81
1719834668.064,359,80,81
1719834668.064,353,80,81
1719834668.094,363,80,81
1719834668.094,379,80,81
1719834668.094,379,80,81
1719834668.094,356,80,81
1719834668.094,330,80,81
1719834668.094,322,80,81
1719834668.094,332,80,81
1719834668.094,341,80,81
1719834668.125,330,80,81
1719834668.125,303,80,81
1719834668.125,281,80,81
1719834668.125,274,80,81
1719834668.125,276,80,81
1719834668.125,272,80,81
1719834668.125,259,80,81
1719834668.125,244,80,81
1719834668.125,237,80,81
1719834668.125,240,80,81
1719834668.125,246,80,81
1719834668.125,250,80,81
1719834668.125,252,80,81
1719834668.125,251,80,81
1719834668.125,247,80,81
1719834668.156,242,80,81
1719834668.156,239,80,81
1719834668.156,242,80,81
1719834668.156,248,80,81
1719834668.156,249,80,81
1719834668.156,239,80,81
1719834668.156,225,80,81
1719834668.156,220,80,81
1719834668.156,228,80,81
1719834668.156,240,80,81
1719834668.156,244,80,81
1719834668.156,235,80,81
1719834668.156,222,80,81
1719834668.156,218,80,81
1719834668.156,223,80,81
1719834668.156,231,80,81
1719834668.156,230,80,81
1719834668.156,222,80,81
1719834668.156,215,80,81
1719834668.156,213,80,81
1719834668.156,214,80,81
1719834668.156,212,80,81
1719834668.188,206,80,81
1719834668.188,201,80,81
1719834668.188,203,80,81
1719834668.188,211,80,81
1719834668.188,216,80,81
1719834668.188,213,80,81
1719834668.188,207,80,81
1719834668.188,206,80,81
1719834668.188,213,80,81
1719834668.188,222,80,81
1719834668.188,226,80,81
1719834668.188,230,80,81
1719834668.188,237,80,81
1719834668.188,244,80,81
1719834668.188,244,80,81
1719834668.22,238,80,81
1719834668.22,232,80,81
1719834668.22,233,80,81
1719834668.22,239,80,81
1719834668.22,239,80,81
1719834668.22,230,80,81
1719834668.22,220,80,81
1719834668.22,216,80,81
1719834668.22,213,80,81
1719834668.22,205,80,81
1719834668.22,197,80,81
1719834668.22,198,80,81
1719834668.22,213,80,81
1719834668.22,226,80,81
1719834668.22,223,80,81
1719834668.252,206,80,81
1719834668.252,196,80,81
1719834668.252,201,80,81
1719834668.252,213,80,81
1719834668.252,209,80,81
1719834668.252,186,80,81
1719834668.252,161,80,81
1719834668.252,154,80,81
1719834668.252,160,80,81
1719834668.252,163,80,81
1719834668.252,156,80,81
1719834668.252,148,80,81
1719834668.252,154,80,81
1719834668.252,179,80,81
1719834668.252,213,80,81
1719834668.283,248,80,81
1719834668.283,281,80,81
1719834668.283,315,80,81
1719834668.283,347,80,81
1719834668.283,375,80,81
1719834668.283,400,80,81
1719834668.283,425,80,81
1719834668.283,445,80,81
1719834668.283,446,80,81
1719834668.283,424,80,81
1719834668.283,390,80,81
1719834668.283,363,80,81
1719834668.283,352,80,81
1719834668.283,352,80,81
1719834668.283,349,80,81
1719834668.315,336,80,81
1719834668.315,319,80,81
1719834668.315,307,80,81
1719834668.315,300,80,81
1719834668.315,297,80,81
1719834668.315,290,80,81
1719834668.315,275,80,81
1719834668.315,246,80,81
1719834668.315,207,80,81
1719834668.315,169,80,81
1719834668.315,144,80,81
1719834668.315,134,80,81
1719834668.315,132,80,81
1719834668.315,131,80,81
1719834668.315,131,80,81
1719834668.345,138,80,81
1719834668.345,153,80,81
1719834668.345,170,80,81
1719834668.345,183,80,81
1719834668.345,192,80,81
1719834668.345,199,80,81
1719834668.345,205,80,81
1719834668.345,205,80,81
1719834668.345,200,80,81
1719834668.345,195,80,81
1719834668.345,190,80,81
1719834668.345,184,80,81
1719834668.345,170,80,81
1719834668.345,156,80,81
1719834668.345,152,80,81
1719834668.376,160,80,81
1719834668.376,168,80,81
1719834668.376,165,80,81
1719834668.376,151,80,81
1719834668.376,140,80,81
1719834668.376,143,80,81
1719834668.376,156,80,81
1719834668.376,165,80,81
1719834668.376,160,80,81
1719834668.376,153,80,81
1719834668.376,166,80,81
1719834668.376,206,80,81
1719834668.376,264,80,81
1719834668.376,319,80,81
1719834668.376,353,80,81
1719834668.376,354,80,81
1719834668.376,330,80,81
1719834668.376,307,80,81
1719834668.376,291,80,81
1719834668.376,247,80,81
1719834668.376,122,80,81
1719834668.406,-95,80,81
1719834668.406,-328,80,81
1719834668.406,-448,80,81
1719834668.406,-360,80,81
1719834668.406,-39,80,81
1719834668.406,526,80,81
1719834668.406,1403,80,81
1719834668.406,2683,80,81
1719834668.406,4337,80,81
1719834668.406,6139,80,81
1719834668.406,7786,80,81
1719834668.406,9115,80,81
1719834668.406,10167,80,81
1719834668.406,10999,80,81
1719834668.437,11449,81,81
1719834668.437,11156,81,81
1719834668.437,9895,81,81
1719834668.437,7873,81,81
1719834668.437,5659,81,81
1719834668.437,3772,81,81
1719834668.437,2329,81,81
1719834668.437,1100,81,81
1719834668.437,-114,81,81
1719834668.437,-1198,81,81
1719834668.437,-1829,81,81
1719834668.437,-1816,81,81
1719834668.437,-1319,81,81
1719834668.437,-715,81,81
1719834668.437,-321,81,81
1719834668.469,-215,81,81
1719834668.469,-288,81,81
1719834668.469,-409,81,81
1719834668.469,-530,81,81
1719834668.469,-668,81,81
1719834668.469,-840,81,81
1719834668.469,-1033,81,81
1719834668.469,-1217,81,81
1719834668.469,-1370,81,81
1719834668.469,-1476,81,81
1719834668.469,-1534,81,81
1719834668.469,-1553,81,81
1719834668.469,-1545,81,81
1719834668.469,-1523,81,81
1719834668.469,-1509,81,81
1719834668.5,-1518,81,81
1719834668.5,-1550,81,81
1719834668.5,-1583,81,81
1719834668.5,-1589,81,81
1719834668.5,-1551,81,81
1719834668.5,-1480,81,81
1719834668.5,-1400,81,81
1719834668.5,-1335,81,81
1719834668.5,-1298,81,81
1719834668.5,-1291,81,81
1719834668.5,-1304,81,81
1719834668.5,-1321,81,81
1719834668.5,-1323,81,81
1719834668.5,-1303,81,81
1719834668.5,-1267,81,81
1719834668.53,-1232,81,81
1719834668.53,-1206,81,81
1719834668.53,-1180,81,81
1719834668.53,-1148,81,81
1719834668.53,-1116,81,81
1719834668.53,-1103,81,81
1719834668.53,-1112,81,81
1719834668.53,-1121,81,81
1719834668.53,-1101,81,81
1719834668.53,-1046,81,81
1719834668.53,-984,81,81
1719834668.53,-946,81,81
1719834668.53,-933,81,81
1719834668.53,-923,81,81
1719834668.53,-896,81,81
1719834668.53,-858,81,81
1719834668.53,-829,81,81
1719834668.53,-813,81,81
1719834668.53,-801,81,81
1719834668.53,-783,81,81
1719834668.53,-761,81,81
1719834668.53,-744,81,81
1719834668.53,-735,81,81
1719834668.561,-727,81,81
1719834668.561,-715,81,81
1719834668.561,-702,81,81
1719834668.561,-694,81,81
1719834668.561,-691,81,81
1719834668.561,-686,81,81
1719834668.561,-678,81,81
1719834668.561,-668,81,81
1719834668.561,-660,81,81
1719834668.561,-654,81,81
1719834668.561,-647,81,81
1719834668.561,-641,81,81
1719834668.561,-638,81,81
1719834668.561,-639,81,81
1719834668.561,-643,81,81
1719834668.593,-647,81,81
1719834668.593,-653,81,81
1719834668.593,-661,81,81
1719834668.593,-669,81,81
1719834668.593,-676,81,81
1719834668.593,-680,81,81
1719834668.593,-685,81,81
1719834668.593,-692,81,81
1719834668.593,-701,81,81
1719834668.593,-710,81,81
1719834668.593,-716,81,81
1719834668.593,-722,81,81
1719834668.593,-732,81,81
1719834668.593,-752,81,81
1719834668.593,-784,81,81
1719834668.624,-821,81,81
1719834668.624,-849,81,81
1719834668.624,-863,81,81
1719834668.624,-868,81,81
1719834668.624,-880,81,81
1719834668.624,-906,81,81
1719834668.624,-933,81,81
1719834668.655,-945,81,81
1719834668.655,-935,81,81
1719834668.655,-916,81,81
1719834668.655,-904,81,81
1719834668.655,-902,81,81
1719834668.655,-904,81,81
1719834668.655,-899,81,81
1719834668.655,-884,81,81
1719834668.655,-859,81,81
1719834668.655,-826,81,81
1719834668.655,-785,81,81
1719834668.655,-740,81,81
1719834668.655,-695,81,81
1719834668.655,-651,81,81
1719834668.655,-607,81,81
1719834668.655,-557,81,81
1719834668.655,-504,81,81
1719834668.655,-449,81,81
1719834668.655,-398,81,81
1719834668.655,-355,81,81
1719834668.655,-319,81,81
1719834668.655,-286,81,81
1719834668.655,-246,81,81
1719834668.686,-194,81,81
1719834668.686,-135,81,81
1719834668.686,-82,81,81
1719834668.686,-43,81,81
1719834668.686,-13,81,81
1719834668.686,18,81,81
1719834668.686,58,81,81
1719834668.686,101,81,81
1719834668.686,136,81,81
1719834668.686,156,81,81
1719834668.686,168,81,81
1719834668.686,180,81,81
1719834668.686,197,81,81
1719834668.686,218,81,81
1719834668.686,240,81,81
1719834668.717,260,81,81
1719834668.717,274,81,81
1719834668.717,282,81,81
1719834668.717,289,81,81
1719834668.717,306,81,81
1719834668.717,331,81,81
1719834668.717,354,81,81
1719834668.717,361,81,81
1719834668.717,351,81,81
1719834668.717,339,81,81
1719834668.717,342,81,81
1719834668.717,362,81,81
1719834668.717,384,81,81
1719834668.717,395,81,81
1719834668.717,396,81,81
1719834668.747,395,81,81
1719834668.747,401,81,81
1719834668.747,413,81,81
1719834668.747,423,81,81
1719834668.747,428,81,81
1719834668.747,427,81,81
1719834668.747,424,81,81
1719834668.747,423,81,81
1719834668.747,422,81,81
1719834668.747,422,81,81
1719834668.747,421,81,81
1719834668.747,420,81,81
1719834668.747,422,81,81
1719834668.747,429,81,81
1719834668.747,437,81,81
1719834668.779,440,81,81
1719834668.779,436,81,81
1719834668.779,429,81,81
1719834668.779,428,81,81
1719834668.779,438,81,81
1719834668.779,451,81,81
1719834668.779,456,81,81
1719834668.779,450,81,81
1719834668.779,439,81,81
1719834668.779,433,81,81
1719834668.779,434,81,81
1719834668.779,440,81,81
1719834668.779,443,81,81
1719834668.779,438,81,81
1719834668.779,425,81,81
1719834668.81,410,81,81
1719834668.81,401,81,81
1719834668.81,401,81,81
1719834668.81,401,81,81
1719834668.81,390,81,81
1719834668.81,373,81,81
1719834668.81,363,81,81
1719834668.81,369,81,81
1719834668.81,382,81,81
1719834668.81,380,81,81
1719834668.81,357,81,81
1719834668.81,330,81,81
1719834668.81,319,81,81
1719834668.81,322,81,81
1719834668.81,322,81,81
1719834668.842,306,81,81
1719834668.842,280,81,81
1719834668.842,259,81,81
1719834668.842,250,81,81
1719834668.842,245,81,81
1719834668.842,235,81,81
1719834668.842,222,81,81
1719834668.842,211,81,81
1719834668.842,204,81,81
1719834668.842,199,81,81
1719834668.842,194,81,81
1719834668.842,194,81,81
1719834668.842,198,81,81
1719834668.842,201,81,81
1719834668.842,198,81,81
1719834668.842,192,81,81
1719834668.842,192,81,81
1719834668.842,199,81,81
1719834668.842,208,81,81
1719834668.842,210,81,81
1719834668.842,205,81,81
1719834668.842,199,81,81
1719834668.873,198,81,81
1719834668.873,198,81,81
1719834668.873,194,81,81
1719834668.873,186,81,81
1719834668.873,182,81,81
1719834668.873,184,81,81
1719834668.873,187,81,81
1719834668.873,180,81,81
1719834668.904,166,81,81
1719834668.904,160,81,81
1719834668.904,170,81,81
1719834668.904,187,81,81
1719834668.904,194,81,81
1719834668.904,182,81,81
1719834668.904,165,81,81
1719834668.904,158,81,81
1719834668.904,166,81,81
1719834668.904,178,81,81
1719834668.904,179,81,81
1719834668.904,167,81,81
1719834668.904,154,81,81
1719834668.904,149,81,81
1719834668.904,155,81,81
1719834668.904,165,81,81
1719834668.904,169,81,81
1719834668.904,164,81,81
1719834668.904,155,81,81
1719834668.904,148,81,81
1719834668.904,146,81,81
1719834668.904,145,81,81
1719834668.936,139,81,81
1719834668.936,130,81,81
1719834668.936,122,81,81
1719834668.936,119,81,81
1719834668.936,120,81,81
1719834668.936,116,81,81
1719834668.936,108,81,81
1719834668.936,100,81,81
1719834668.936,100,81,81
1719834668.936,104,81,81
1719834668.936,108,81,81
1719834668.936,107,81,81
1719834668.936,104,81,81
1719834668.936,104,81,81
1719834668.936,108,81,81
1719834668.967,115,81,81
1719834668.967,118,81,81
1719834668.967,116,81,81
1719834668.967,111,81,81
1719834668.967,108,81,81
1719834668.967,109,81,81
1719834668.967,110,81,81
1719834668.967,101,81,81
1719834668.967,81,81,81
1719834668.967,60,81,81
1719834668.967,54,81,81
1719834668.967,68,81,81
1719834668.967,88,81,81
1719834668.967,94,81,81
1719834668.967,84,81,81
1719834668.998,75,81,81
1719834668.998,83,81,81
1719834668.998,98,81,81
1719834668.998,101,81,81
1719834668.998,84,81,81
1719834668.998,58,81,81
1719834668.998,38,81,81
1719834668.998,26,81,81
1719834668.998,19,81,81
1719834668.998,21,81,81
1719834668.998,39,81,81
1719834668.998,76,81,81
1719834668.998,119,81,81
1719834668.998,158,81,81
1719834668.998,195,81,81
1719834669.028,235,81,81
1719834669.028,272,81,81
1719834669.028,295,81,81
1719834669.028,299,81,81
1719834669.028,291,81,81
1719834669.028,278,81,81
1719834669.028,258,81,81
1719834669.028,227,81,81
1719834669.028,192,81,81
1719834669.028,170,81,81
1719834669.028,168,81,81
1719834669.028,177,81,81
1719834669.028,177,81,81
1719834669.028,166,81,81
1719834669.028,153,81,81
1719834669.059,149,81,81
1719834669.059,151,81,81
1719834669.059,144,81,81
1719834669.059,122,81,81
1719834669.059,91,81,81
1719834669.059,62,81,81
1719834669.059,42,81,81
1719834669.059,29,81,81
1719834669.059,21,81,81
1719834669.059,18,81,81
1719834669.059,18,81,81
1719834669.059,22,81,81
1719834669.059,28,81,81
1719834669.059,38,81,81
1719834669.059,49,81,81
1719834669.091,54,81,81
1719834669.091,47,81,81
1719834669.091,39,81,81
1719834669.091,40,81,81
1719834669.091,55,81,81
1719834669.091,71,81,81
1719834669.091,74,81,81
1719834669.091,65,81,81
1719834669.091,63,81,81
1719834669.091,76,81,81
1719834669.091,98,81,81
1719834669.091,108,81,81
1719834669.091,98,81,81
1719834669.091,79,81,81
1719834669.091,68,81,81
1719834669.091,69,81,81
1719834669.091,70,81,81
1719834669.091,63,81,81
1719834669.091,54,81,81
1719834669.091,54,81,81
1719834669.091,63,81,81
1719834669.091,79,81,81
1719834669.091,105,81,81
1719834669.122,142,81,81
1719834669.122,191,81,81
1719834669.122,243,81,81
1719834669.122,280,81,81
1719834669.122,281,81,81
1719834669.122,252,81,81
1719834669.122,221,81,81
1719834669.154,208,81,81
1719834669.154,183,81,81
1719834669.154,84,81,81
1719834669.154,-113,81,81
1719834669.154,-345,81,81
1719834669.154,-477,81,81
1719834669.154,-400,81,81
1719834669.154,-90,81,81
1719834669.154,450,81,81
1719834669.154,1283,81,81
1719834669.154,2516,81,81
1719834669.154,4144,81,81
1719834669.154,5955,81,81
1719834669.154,7630,81,81
1719834669.154,8979,81,81
1719834669.185,10042,82,81
1719834669.185,10905,82,81
1719834669.185,11425,82,81
1719834669.185,11229,82,81
1719834669.185,10042,82,81
1719834669.185,8030,82,81
1719834669.185,5767,82,81
1719834669.185,3811,82,81
1719834669.185,2321,82,81
1719834669.185,1075,82,81
1719834669.185,-152,82,81
1719834669.185,-1277,82,81
1719834669.185,-1975,82,81
1719834669.185,-2027,82,81
1719834669.185,-1554,82,81
1719834669.217,-925,82,81
1719834669.217,-476,82,81
1719834669.217,-323,82,81
1719834669.217,-373,82,81
1719834669.217,-490,82,81
1719834669.217,-604,82,81
1719834669.217,-722,82,81
1719834669.217,-866,82,81
1719834669.217,-1040,82,81
1719834669.217,-1223,82,81
1719834669.217,-1392,82,81
1719834669.217,-1517,82,81
1719834669.217,-1585,82,81
1719834669.217,-1602,82,81
1719834669.217,-1588,82,81
1719834669.217,-1566,82,81
1719834669.217,-1559,82,81
1719834669.217,-1576,82,81
1719834669.217,-1606,82,81
1719834669.217,-1630,82,81
1719834669.217,-1629,82,81
1719834669.217,-1595,82,81
1719834669.217,-1536,82,81
1719834669.247,-1470,82,81
1719834669.247,-1415,82,81
1719834669.247,-1384,82,81
1719834669.247,-1380,82,81
1719834669.247,-1393,82,81
1719834669.247,-1414,82,81
1719834669.247,-1427,82,81
1719834669.247,-1421,82,81
1719834669.247,-1387,82,81
1719834669.247,-1328,82,81
1719834669.247,-1259,82,81
1719834669.247,-1202,82,81
1719834669.247,-1170,82,81
1719834669.247,-1162,82,81
1719834669.247,-1161,82,81
1719834669.277,-1154,82,81
1719834669.277,-1131,82,81
1719834669.277,-1097,82,81
1719834669.277,-1061,82,81
1719834669.277,-1030,82,81
1719834669.277,-1006,82,81
1719834669.277,-984,82,81
1719834669.277,-962,82,81
1719834669.277,-941,82,81
1719834669.277,-924,82,81
1719834669.277,-912,82,81
1719834669.277,-901,82,81
1719834669.277,-885,82,81
1719834669.277,-863,82,81
1719834669.277,-836,82,81
1719834669.308,-808,82,81
1719834669.308,-784,82,81
1719834669.308,-768,82,81
1719834669.308,-759,82,81
1719834669.308,-750,82,81
1719834669.308,-736,82,81
1719834669.308,-719,82,81
1719834669.308,-710,82,81
1719834669.308,-714,82,81
1719834669.308,-723,82,81
1719834669.308,-724,82,81
1719834669.308,-712,82,81
1719834669.308,-694,82,81
1719834669.308,-685,82,81
1719834669.308,-689,82,81
1719834669.338,-699,82,81
1719834669.338,-704,82,81
1719834669.338,-699,82,81
1719834669.338,-691,82,81
1719834669.338,-692,82,81
1719834669.338,-711,82,81
1719834669.338,-740,82,81
1719834669.338,-764,82,81
1719834669.338,-774,82,81
1719834669.338,-779,82,81
1719834669.338,-794,82,81
1719834669.338,-823,82,81
1719834669.338,-854,82,81
1719834669.338,-873,82,81
1719834669.338,-880,82,81
1719834669.369,-887,82,81
1719834669.369,-903,82,81
1719834669.369,-924,82,81
1719834669.369,-941,82,81
1719834669.369,-951,82,81
1719834669.369,-959,82,81
1719834669.369,-970,82,81
1719834669.369,-984,82,81
1719834669.369,-999,82,81
1719834669.369,-1012,82,81
1719834669.369,-1021,82,81
1719834669.369,-1025,82,81
1719834669.369,-1022,82,81
1719834669.369,-1015,82,81
1719834669.369,-1006,82,81
1719834669.369,-995,82,81
1719834669.369,-976,82,81
1719834669.369,-951,82,81
1719834669.369,-922,82,81
1719834669.369,-891,82,81
1719834669.369,-853,82,81
1719834669.369,-805,82,81
1719834669.4,-750,82,81
1719834669.4,-695,82,81
1719834669.4,-645,82,81
1719834669.4,-598,82,81
1719834669.4,-546,82,81
1719834669.431,-486,82,81
1719834669.431,-424,82,81
1719834669.431,-367,82,81
1719834669.431,-319,82,81
1719834669.431,-279,82,81
1719834669.431,-238,82,81
1719834669.431,-194,82,81
1719834669.431,-151,82,81
1719834669.431,-113,82,81
1719834669.431,-80,82,81
1719834669.431,-42,82,81
1719834669.431,6,82,81
1719834669.431,57,82,81
1719834669.431,96,82,81
1719834669.431,117,82,81
1719834669.431,132,82,81
1719834669.431,156,82,81
1719834669.431,191,82,81
1719834669.431,220,82,81
1719834669.431,228,82,81
1719834669.431,220,82,81
1719834669.431,216,82,81
1719834669.462,227,82,81
1719834669.462,249,82,81
1719834669.462,269,82,81
1719834669.462,283,82,81
1719834669.462,294,82,81
1719834669.462,310,82,81
1719834669.462,328,82,81
1719834669.462,344,82,81
1719834669.462,355,82,81
1719834669.462,363,82,81
1719834669.462,371,82,81
1719834669.462,377,82,81
1719834669.462,377,82,81
1719834669.462,372,82,81
1719834669.462,363,82,81
1719834669.493,357,82,81
1719834669.493,356,82,81
1719834669.493,358,82,81
1719834669.493,361,82,81
1719834669.493,361,82,81
1719834669.493,359,82,81
1719834669.493,358,82,81
1719834669.493,360,82,81
1719834669.493,359,82,81
1719834669.493,355,82,81
1719834669.493,348,82,81
1719834669.493,343,82,81
1719834669.493,344,82,81
1719834669.493,348,82,81
1719834669.493,349,82,81
1719834669.524,343,82,81
1719834669.524,336,82,81
1719834669.524,334,82,81
1719834669.524,339,82,81
1719834669.524,348,82,81
1719834669.524,351,82,81
1719834669.524,348,82,81
1719834669.524,346,82,81
1719834669.524,351,82,81
1719834669.524,362,82,81
1719834669.524,372,82,81
1719834669.524,371,82,81
1719834669.524,363,82,81
1719834669.524,357,82,81
1719834669.524,362,82,81
1719834669.555,372,82,81
1719834669.555,372,82,81
1719834669.555,358,82,81
1719834669.555,337,82,81
1719834669.555,324,82,81
1719834669.555,324,82,81
1719834669.555,328,82,81
1719834669.555,322,82,81
1719834669.555,306,82,81
1719834669.555,287,82,81
1719834669.555,274,82,81
1719834669.555,270,82,81
1719834669.555,270,82,81
1719834669.555,266,82,81
1719834669.555,258,82,81
1719834669.586,250,82,81
1719834669.586,247,82,81
1719834669.586,251,82,81
1719834669.586,257,82,81
1719834669.586,257,82,81
1719834669.586,249,82,81
1719834669.586,236,82,81
1719834669.586,227,82,81
1719834669.586,222,82,81
1719834669.586,215,82,81
1719834669.586,199,82,81
1719834669.586,179,82,81
1719834669.586,168,82,81
1719834669.586,169,82,81
1719834669.586,175,82,81
1719834669.617,172,82,81
1719834669.617,162,82,81
1719834669.617,157,82,81
1719834669.617,164,82,81
1719834669.617,173,82,81
1719834669.617,169,82,81
1719834669.617,152,82,81
1719834669.617,137,82,81
1719834669.617,137,82,81
1719834669.617,148,82,81
1719834669.617,154,82,81
1719834669.617,147,82,81
1719834669.617,140,82,81
1719834669.617,145,82,81
1719834669.617,161,82,81
1719834669.647,171,82,81
1719834669.647,164,82,81
1719834669.647,148,82,81
1719834669.647,135,82,81
1719834669.647,130,82,81
1719834669.647,129,82,81
1719834669.647,126,82,81
1719834669.647,121,82,81
1719834669.647,114,82,81
1719834669.647,107,82,81
1719834669.647,101,82,81
1719834669.647,101,82,81
1719834669.647,111,82,81
1719834669.647,124,82,81
1719834669.647,130,82,81
1719834669.679,123,82,81
1719834669.679,110,82,81
1719834669.679,102,82,81
1719834669.679,105,82,81
1719834669.679,111,82,81
1719834669.679,108,82,81
1719834669.679,95,82,81
1719834669.679,80,82,81
1719834669.679,75,82,81
1719834669.679,83,82,81
1719834669.679,96,82,81
1719834669.679,102,82,81
1719834669.679,97,82,81
1719834669.679,90,82,81
1719834669.679,92,82,81
1719834669.711,103,82,81
1719834669.711,110,82,81
1719834669.711,105,82,81
1719834669.711,94,82,81
1719834669.711,90,82,81
1719834669.711,98,82,81
1719834669.711,107,82,81
1719834669.711,104,82,81
1719834669.711,92,82,81
1719834669.711,87,82,81
1719834669.711,95,82,81
1719834669.711,105,82,81
1719834669.711,97,82,81
1719834669.711,72,82,81
1719834669.711,50,82,81
1719834669.711,46,82,81
1719834669.711,53,82,81
1719834669.711,49,82,81
1719834669.711,26,82,81
1719834669.711,0,82,81
1719834669.711,-3,82,81
1719834669.711,22,82,81
1719834669.711,61,82,81
1719834669.743,96,82,81
1719834669.743,126,82,81
1719834669.743,158,82,81
1719834669.743,200,82,81
1719834669.743,244,82,81
1719834669.743,279,82,81
1719834669.743,300,82,81
1719834669.743,313,82,81
1719834669.743,318,82,81
1719834669.743,312,82,81
1719834669.743,292,82,81
1719834669.743,261,82,81
1719834669.743,229,82,81
1719834669.743,207,82,81
1719834669.743,195,82,81
1719834669.773,184,82,81
1719834669.773,167,82,81
1719834669.773,148,82,81
1719834669.773,135,82,81
1719834669.773,130,82,81
1719834669.773,123,82,81
1719834669.773,103,82,81
1719834669.773,75,82,81
1719834669.773,52,82,81
1719834669.773,43,82,81
1719834669.773,40,82,81
1719834669.773,32,82,81
1719834669.773,20,82,81
1719834669.773,14,82,81
1719834669.773,20,82,81
1719834669.805,29,82,81
1719834669.805,31,82,81
1719834669.805,26,82,81
1719834669.805,30,82,81
1719834669.805,44,82,81
1719834669.805,56,82,81
1719834669.805,53,82,81
1719834669.805,37,82,81
1719834669.805,27,82,81
1719834669.805,36,82,81
1719834669.805,56,82,81
1719834669.805,67,82,81
1719834669.805,60,82,81
1719834669.805,44,82,81
1719834669.805,35,82,81
1719834669.837,40,82,81
1719834669.837,50,82,81
1719834669.837,55,82,81
1719834669.837,56,82,81
1719834669.837,58,82,81
1719834669.837,64,82,81
1719834669.837,72,82,81
1719834669.837,79,82,81
1719834669.837,88,82,81
1719834669.837,96,82,81
1719834669.837,108,82,81
1719834669.837,129,82,81
1719834669.837,160,82,81
1719834669.837,198,82,81
1719834669.837,231,82,81
1719834669.868,245,82,81
1719834669.868,236,82,81
1719834669.868,217,82,81
1719834669.868,214,82,81
1719834669.868,227,82,81
1719834669.868,209,82,81
1719834669.868,114,82,81
1719834669.868,-51,82,81
1719834669.868,-204,82,81
1719834669.868,-231,82,81
1719834669.868,-73,82,81
1719834669.868,254,82,81
1719834669.868,760,82,81
1719834669.868,1549,82,81
1719834669.868,2729,82,81
1719834669.9,4227,82,81
1719834669.9,5741,82,81
1719834669.9,6957,82,81
1719834669.9,7831,82,81
1719834669.9,8568,82,81
1719834669.9,9275,82,81
1719834669.9,9665,82,81
1719834669.9,9233,82,81
1719834669.9,7770,82,81
1719834669.9,5666,82,81
1719834669.9,3632,82,81
1719834669.9,2114,82,81
1719834669.9,1005,82,81
1719834669.9,-54,82,81
1719834669.9,-1192,82,81
1719834669.931,-2151,83,82
1719834669.931,-2568,83,82
1719834669.931,-2353,83,82
1719834669.931,-1751,83,82
1719834669.931,-1116,83,82
1719834669.931,-672,83,82
1719834669.931,-461,83,82
1719834669.931,-417,83,82
1719834669.931,-456,83,82
1719834669.931,-511,83,82
1719834669.931,-544,83,82
1719834669.931,-563,83,82
1719834669.931,-610,83,82
1719834669.931,-723,83,82
1719834669.931,-884,83,82
1719834669.931,-1024,83,82
1719834669.931,-1086,83,82
1719834669.931,-1074,83,82
1719834669.931,-1035,83,82
1719834669.931,-1021,83,82
1719834669.931,-1052,83,82
1719834669.931,-1106,83,82
1719834669.962,-1153,83,82
1719834669.962,-1175,83,82
1719834669.962,-1167,83,82
1719834669.962,-1130,83,82
1719834669.962,-1067,83,82
1719834669.962,-986,83,82
1719834669.962,-913,83,82
1719834669.962,-872,83,82
1719834669.995,-870,83,82
1719834669.995,-895,83,82
1719834669.995,-922,83,82
1719834669.995,-935,83,82
1719834669.995,-926,83,82
1719834669.995,-896,83,82
1719834669.995,-849,83,82
1719834669.995,-792,83,82
1719834669.995,-739,83,82
1719834669.995,-701,83,82
1719834669.995,-680,83,82
1719834669.995,-670,83,82
1719834669.995,-662,83,82
1719834669.995,-649,83,82
1719834669.995,-631,83,82
1719834669.995,-605,83,82
1719834669.995,-573,83,82
1719834669.995,-537,83,82
1719834669.995,-509,83,82
1719834669.995,-495,83,82
1719834669.995,-492,83,82
1719834669.995,-484,83,82
1719834670.024,-460,83,82
1719834670.024,-422,83,82
1719834670.024,-385,83,82
1719834670.024,-362,83,82
1719834670.024,-352,83,82
1719834670.024,-342,83,82
1719834670.024,-325,83,82
1719834670.024,-304,83,82
1719834670.024,-291,83,82
1719834670.024,-289,83,82
1719834670.024,-291,83,82
1719834670.024,-290,83,82
1719834670.024,-283,83,82
1719834670.024,-275,83,82
1719834670.024,-268,83,82
1719834670.055,-264,83,82
1719834670.055,-260,83,82
1719834670.055,-261,83,82
1719834670.055,-268,83,82
1719834670.055,-279,83,82
1719834670.055,-288,83,82
1719834670.055,-293,83,82
1719834670.055,-297,83,82
1719834670.055,-304,83,82
1719834670.055,-313,83,82
1719834670.055,-323,83,82
1719834670.055,-334,83,82
1719834670.055,-349,83,82
1719834670.055,-372,83,82
1719834670.055,-402,83,82
1719834670.087,-435,83,82
1719834670.087,-469,83,82
1719834670.087,-500,83,82
1719834670.087,-531,83,82
1719834670.087,-566,83,82
1719834670.087,-607,83,82
1719834670.087,-651,83,82
1719834670.087,-691,83,82
1719834670.087,-721,83,82
1719834670.087,-744,83,82
1719834670.087,-769,83,82
1719834670.087,-801,83,82
1719834670.087,-840,83,82
1719834670.087,-876,83,82
1719834670.087,-899,83,82
1719834670.119,-903,83,82
1719834670.119,-897,83,82
1719834670.119,-894,83,82
1719834670.119,-904,83,82
1719834670.119,-918,83,82
1719834670.119,-921,83,82
1719834670.119,-904,83,82
1719834670.119,-874,83,82
1719834670.119,-848,83,82
1719834670.119,-832,83,82
1719834670.119,-819,83,82
1719834670.119,-799,83,82
1719834670.119,-763,83,82
1719834670.119,-717,83,82
1719834670.119,-671,83,82
1719834670.151,-631,83,82
1719834670.151,-598,83,82
1719834670.151,-567,83,82
1719834670.151,-530,83,82
1719834670.151,-488,83,82
1719834670.151,-444,83,82
1719834670.151,-402,83,82
1719834670.151,-365,83,82
1719834670.151,-330,83,82
1719834670.151,-297,83,82
1719834670.151,-266,83,82
1719834670.151,-233,83,82
1719834670.151,-200,83,82
1719834670.151,-166,83,82
1719834670.151,-134,83,82
1719834670.151,-110,83,82
1719834670.151,-89,83,82
1719834670.151,-66,83,82
1719834670.151,-35,83,82
1719834670.151,-4,83,82
1719834670.151,19,83,82
1719834670.151,34,83,82
1719834670.151,47,83,82
1719834670.182,64,83,82
1719834670.182,79,83,82
1719834670.182,87,83,82
1719834670.182,88,83,82
1719834670.182,90,83,82
1719834670.182,99,83,82
1719834670.182,113,83,82
1719834670.214,131,83,82
1719834670.214,155,83,82
1719834670.214,185,83,82
1719834670.214,210,83,82
1719834670.214,220,83,82
1719834670.214,220,83,82
1719834670.214,226,83,82
1719834670.214,242,83,82
1719834670.214,259,83,82
1719834670.214,261,83,82
1719834670.214,248,83,82
1719834670.214,235,83,82
1719834670.214,234,83,82
1719834670.214,242,83,82
1719834670.214,252,83,82
1719834670.214,258,83,82
1719834670.214,259,83,82
1719834670.214,254,83,82
1719834670.214,242,83,82
1719834670.214,228,83,82
1719834670.214,222,83,82
1719834670.214,224,83,82
1719834670.214,225,83,82
1719834670.245,219,83,82
1719834670.245,206,83,82
1719834670.245,200,83,82
1719834670.245,205,83,82
1719834670.245,217,83,82
1719834670.245,230,83,82
1719834670.245,245,83,82
1719834670.245,260,83,82
1719834670.245,267,83,82
1719834670.245,259,83,82
1719834670.245,242,83,82
1719834670.245,235,83,82
1719834670.245,246,83,82
1719834670.245,265,83,82
1719834670.245,269,83,82
1719834670.276,249,83,82
1719834670.276,223,83,82
1719834670.276,214,83,82
1719834670.276,230,83,82
1719834670.276,251,83,82
1719834670.276,256,83,82
1719834670.276,238,83,82
1719834670.276,211,83,82
1719834670.276,197,83,82
1719834670.276,205,83,82
1719834670.276,222,83,82
1719834670.276,226,83,82
1719834670.276,207,83,82
1719834670.276,178,83,82
1719834670.276,163,83,82
1719834670.307,172,83,82
1719834670.307,192,83,82
1719834670.307,195,83,82
1719834670.307,173,83,82
1719834670.307,144,83,82
1719834670.307,134,83,82
1719834670.307,146,83,82
1719834670.307,158,83,82
1719834670.307,147,83,82
1719834670.307,115,83,82
1719834670.307,84,83,82
1719834670.307,67,83,82
1719834670.307,63,83,82
1719834670.307,59,83,82
1719834670.307,50,83,82
1719834670.338,41,83,82
1719834670.338,36,83,82
1719834670.338,36,83,82
1719834670.338,36,83,82
1719834670.338,35,83,82
1719834670.338,38,83,82
1719834670.338,45,83,82
1719834670.338,51,83,82
1719834670.338,51,83,82
1719834670.338,41,83,82
1719834670.338,30,83,82
1719834670.338,24,83,82
1719834670.338,23,83,82
1719834670.338,21,83,82
1719834670.338,15,83,82
1719834670.369,13,83,82
1719834670.369,18,83,82
1719834670.369,26,83,82
1719834670.369,28,83,82
1719834670.369,20,83,82
1719834670.369,12,83,82
1719834670.369,16,83,82
1719834670.369,31,83,82
1719834670.369,39,83,82
1719834670.369,31,83,82
1719834670.369,12,83,82
1719834670.369,-4,83,82
1719834670.369,-12,83,82
1719834670.369,-16,83,82
1719834670.369,-19,83,82
1719834670.369,-13,83,82
1719834670.369,9,83,82
1719834670.369,44,83,82
1719834670.369,79,83,82
1719834670.369,108,83,82
1719834670.369,140,83,82
1719834670.369,183,83,82
1719834670.401,229,83,82
1719834670.401,260,83,82
1719834670.401,265,83,82
1719834670.401,252,83,82
1719834670.401,238,83,82
1719834670.401,235,83,82
1719834670.401,237,83,82
1719834670.401,235,83,82
1719834670.401,227,83,82
1719834670.401,219,83,82
1719834670.401,219,83,82
1719834670.401,226,83,82
1719834670.401,231,83,82
1719834670.432,223,83,82
1719834670.432,199,83,82
1719834670.432,165,83,82
1719834670.432,130,83,82
1719834670.432,98,83,82
1719834670.432,69,83,82
1719834670.432,39,83,82
1719834670.432,8,83,82
1719834670.432,-18,83,82
1719834670.432,-31,83,82
1719834670.432,-30,83,82
1719834670.432,-15,83,82
1719834670.432,4,83,82
1719834670.432,17,83,82
1719834670.432,22,83,82
1719834670.463,25,83,82
1719834670.463,30,83,82
1719834670.463,33,83,82
1719834670.463,31,83,82
1719834670.463,23,83,82
1719834670.463,19,83,82
1719834670.463,25,83,82
1719834670.463,30,83,82
1719834670.463,23,83,82
1719834670.463,3,83,82
1719834670.463,-10,83,82
1719834670.463,5,83,82
1719834670.463,42,83,82
1719834670.463,72,83,82
1719834670.463,75,83,82
1719834670.494,58,83,82
1719834670.494,48,83,82
1719834670.494,62,83,82
1719834670.494,88,83,82
1719834670.494,101,83,82
1719834670.494,93,83,82
1719834670.494,77,83,82
1719834670.494,66,83,82
1719834670.494,67,83,82
1719834670.494,82,83,82
1719834670.494,109,83,82
1719834670.494,143,83,82
1719834670.494,181,83,82
1719834670.494,211,83,82
1719834670.494,219,83,82
1719834670.524,207,83,82
1719834670.524,194,83,82
1719834670.524,203,83,82
1719834670.524,218,83,82
1719834670.524,186,83,82
1719834670.524,72,83,82
1719834670.524,-92,83,82
1719834670.524,-210,83,82
1719834670.524,-184,83,82
1719834670.524,22,83,82
1719834670.524,408,83,82
1719834670.524,1013,83,82
1719834670.524,1931,83,82
1719834670.524,3185,83,82
1719834670.524,4608,83,82
1719834670.555,5907,83,82
1719834670.555,6906,83,82
1719834670.555,7695,83,82
1719834670.555,8462,83,82
1719834670.555,9146,83,82
1719834670.555,9317,83,82
1719834670.555,8518,83,82
1719834670.555,6765,83,82
1719834670.555,4637,83,82
1719834670.555,2821,83,82
1719834670.555,1555,83,82
1719834670.555,553,83,82
1719834670.555,-543,83,82
1719834670.555,-1701,83,82
1719834670.555,-2522,83,82
1719834670.586,-2667,92,84
1719834670.586,-2194,92,84
1719834670.586,-1473,92,84
1719834670.586,-865,92,84
1719834670.586,-513,92,84
1719834670.586,-374,92,84
1719834670.586,-363,92,84
1719834670.586,-419,92,84
1719834670.586,-498,92,84
1719834670.586,-568,92,84
1719834670.586,-633,92,84
1719834670.586,-731,92,84
1719834670.586,-886,92,84
1719834670.586,-1056,92,84
1719834670.586,-1168,92,84
1719834670.617,-1187,92,84
1719834670.617,-1135,92,84
1719834670.617,-1066,92,84
1719834670.617,-1022,92,84
1719834670.617,-1024,92,84
1719834670.617,-1068,92,84
1719834670.617,-1131,92,84
1719834670.617,-1186,92,84
1719834670.617,-1202,92,84
1719834670.617,-1162,92,84
1719834670.617,-1071,92,84
1719834670.617,-961,92,84
1719834670.617,-875,92,84
1719834670.617,-840,92,84
1719834670.617,-853,92,84
1719834670.617,-890,92,84
1719834670.617,-928,92,84
1719834670.617,-949,92,84
1719834670.617,-943,92,84
1719834670.617,-905,92,84
1719834670.617,-840,92,84
1719834670.617,-768,92,84
1719834670.647,-714,92,84
1719834670.647,-693,92,84
1719834670.647,-697,92,84
1719834670.647,-702,92,84
1719834670.647,-688,92,84
1719834670.647,-658,92,84
1719834670.647,-624,92,84
1719834670.647,-597,92,84
1719834670.677,-577,92,84
1719834670.677,-559,92,84
1719834670.677,-539,92,84
1719834670.677,-521,92,84
1719834670.677,-508,92,84
1719834670.677,-497,92,84
1719834670.677,-485,92,84
1719834670.677,-468,92,84
1719834670.677,-452,92,84
1719834670.677,-436,92,84
1719834670.677,-419,92,84
1719834670.677,-394,92,84
