timestamp: ADC HeartRate4sAverage HeartRate30sAverage
1720775788,605:   -117  63  76
1720775788,605:    -89  63  76
1720775788,605:   -190  63  76
1720775788,605:   -296  63  76
1720775788,605:   -272  63  76
1720775788,605:   -156  63  76
1720775788,605:   -107  63  76
1720775788,605:   -194  63  76
1720775788,605:   -305  63  76
1720775788,605:   -292  63  76
1720775788,605:   -172  63  76
1720775788,605:   -102  63  76
1720775788,605:   -171  63  76
1720775788,605:   -282  63  76
1720775788,605:   -286  63  76
1720775788,637:   -177  63  76
1720775788,637:   -101  63  76
1720775788,637:   -157  63  76
1720775788,637:   -269  63  76
1720775788,637:   -286  63  76
1720775788,637:   -192  63  76
1720775788,637:   -119  63  76
1720775788,637:   -171  63  76
1720775788,637:   -283  63  76
1720775788,637:   -304  63  76
1720775788,637:   -206  63  76
1720775788,637:   -118  63  76
1720775788,637:   -156  63  76
1720775788,637:   -266  63  76
1720775788,637:   -296  63  76
1720775788,637:   -204  63  76
1720775788,637:   -112  63  76
1720775788,637:   -145  63  76
1720775788,637:   -266  63  76
1720775788,637:   -316  63  76
1720775788,637:   -231  63  76
1720775788,637:   -125  63  76
1720775788,637:   -138  63  76
1720775788,667:   -254  63  76
1720775788,667:   -320  63  76
1720775788,667:   -252  63  76
1720775788,667:   -146  63  76
1720775788,667:   -146  63  76
1720775788,667:   -255  63  76
1720775788,667:   -327  63  76
1720775788,699:   -264  63  76
1720775788,699:   -146  63  76
1720775788,699:   -123  63  76
1720775788,699:   -216  63  76
1720775788,699:   -288  63  76
1720775788,699:   -233  63  76
1720775788,699:   -119  63  76
1720775788,699:    -98  63  76
1720775788,699:   -201  63  76
1720775788,699:   -292  63  76
1720775788,699:   -249  63  76
1720775788,699:   -127  63  76
1720775788,699:    -82  63  76
1720775788,699:   -167  63  76
1720775788,699:   -260  63  76
1720775788,699:   -229  63  76
1720775788,699:   -115  63  76
1720775788,699:    -72  63  76
1720775788,699:   -160  63  76
1720775788,699:   -264  63  76
1720775788,699:   -245  63  76
1720775788,699:   -128  63  76
1720775788,699:    -65  63  76
1720775788,729:   -134  63  76
1720775788,729:   -233  63  76
1720775788,729:   -220  63  76
1720775788,729:   -109  63  76
1720775788,729:    -50  63  76
1720775788,729:   -126  63  76
1720775788,729:   -241  63  76
1720775788,729:   -240  63  76
1720775788,729:   -122  63  76
1720775788,729:    -42  63  76
1720775788,729:   -103  63  76
1720775788,729:   -222  63  76
1720775788,729:   -239  63  76
1720775788,729:   -130  63  76
1720775788,729:    -42  63  76
1720775788,760:    -91  63  76
1720775788,760:   -212  63  76
1720775788,760:   -239  63  76
1720775788,760:   -132  63  76
1720775788,760:    -27  63  76
1720775788,760:    -53  63  76
1720775788,760:   -164  63  76
1720775788,760:   -199  63  76
1720775788,760:   -102  63  76
1720775788,760:     -1  63  76
1720775788,760:    -32  63  76
1720775788,760:   -162  63  76
1720775788,760:   -224  63  76
1720775788,760:   -139  63  76
1720775788,760:    -18  63  76
1720775788,791:    -14  63  76
1720775788,791:   -120  63  76
1720775788,791:   -182  63  76
1720775788,791:   -110  63  76
1720775788,791:      5  63  76
1720775788,791:     11  63  76
1720775788,791:    -97  63  76
1720775788,791:   -171  63  76
1720775788,791:   -107  63  76
1720775788,791:     13  63  76
1720775788,791:     35  63  76
1720775788,791:    -67  63  76
1720775788,791:   -150  63  76
1720775788,791:    -98  63  76
1720775788,791:     22  63  76
1720775788,791:     52  63  76
1720775788,791:    -50  63  76
1720775788,791:   -150  63  76
1720775788,791:   -116  63  76
1720775788,791:      4  63  76
1720775788,791:     52  63  76
1720775788,791:    -30  63  76
1720775788,823:   -125  63  76
1720775788,823:    -99  63  76
1720775788,823:     12  63  76
1720775788,823:     57  63  76
1720775788,823:    -31  63  76
1720775788,823:   -140  63  76
1720775788,823:   -130  63  76
1720775788,823:    -21  63  76
1720775788,854:     38  63  76
1720775788,854:    -32  63  76
1720775788,854:   -134  63  76
1720775788,854:   -124  63  76
1720775788,854:    -12  63  76
1720775788,854:     55  63  76
1720775788,854:    -13  63  76
1720775788,854:   -125  63  76
1720775788,854:   -128  63  76
1720775788,854:    -13  63  76
1720775788,854:     74  63  76
1720775788,854:     28  63  76
1720775788,854:    -82  63  76
1720775788,854:   -103  63  76
1720775788,854:     -7  63  76
1720775788,885:     74  63  76
1720775788,885:     27  63  76
1720775788,885:    -91  63  76
1720775788,885:   -126  63  76
1720775788,885:    -32  63  76
1720775788,885:     62  63  76
1720775788,885:     30  63  76
1720775788,885:    -85  63  76
1720775788,885:   -128  63  76
1720775788,885:    -41  63  76
1720775788,885:     57  63  76
1720775788,885:     29  63  76
1720775788,885:   -100  63  76
1720775788,885:   -166  63  76
1720775788,885:    -89  63  76
1720775788,917:     28  63  76
1720775788,917:     33  63  76
1720775788,917:    -71  63  76
1720775788,917:   -138  63  76
1720775788,917:    -74  63  76
1720775788,917:     36  63  76
1720775788,917:     48  63  76
1720775788,917:    -52  63  76
1720775788,917:   -125  63  76
1720775788,917:    -73  63  76
1720775788,917:     35  63  76
1720775788,917:     57  63  76
1720775788,917:    -32  63  76
1720775788,917:   -104  63  76
1720775788,917:    -56  63  76
1720775788,948:     51  63  76
1720775788,948:     75  63  76
1720775788,948:    -17  63  76
1720775788,948:   -103  63  76
1720775788,948:    -65  63  76
1720775788,948:     48  63  76
1720775788,948:     88  63  76
1720775788,948:      6  63  76
1720775788,948:    -84  63  76
1720775788,948:    -57  63  76
1720775788,948:     55  63  76
1720775788,948:    106  63  76
1720775788,948:     28  63  76
1720775788,948:    -77  63  76
1720775788,948:    -71  63  76
1720775788,948:     35  63  76
1720775788,948:     99  63  76
1720775788,948:     38  63  76
1720775788,948:    -64  63  76
1720775788,948:    -69  63  76
1720775788,948:     25  63  76
1720775788,948:     88  63  76
1720775788,979:     31  63  76
1720775788,979:    -70  63  76
1720775788,979:    -78  63  76
1720775788,979:     19  63  76
1720775788,979:     94  63  76
1720775788,979:     49  63  76
1720775788,979:    -53  63  76
1720775788,979:    -71  63  76
1720775788,979:     18  63  76
1720775788,979:     94  63  76
1720775788,979:     52  63  76
1720775788,979:    -56  63  76
1720775788,979:    -85  63  76
1720775788,979:      6  63  76
1720775788,979:    103  63  76
1720775789,010:     87  63  76
1720775789,010:    -12  63  76
1720775789,010:    -51  63  76
1720775789,010:     28  63  76
1720775789,010:    122  63  76
1720775789,010:    105  63  76
1720775789,010:     -7  63  76
1720775789,010:    -68  63  76
1720775789,010:      2  63  76
1720775789,010:    112  63  76
1720775789,010:    121  63  76
1720775789,010:     24  63  76
1720775789,010:    -42  63  76
1720775789,010:     18  63  76
1720775789,010:    127  63  76
1720775789,041:    141  63  76
1720775789,041:     39  63  76
1720775789,041:    -48  63  76
1720775789,041:     -8  63  76
1720775789,041:    100  63  76
1720775789,041:    130  63  76
1720775789,041:     41  63  76
1720775789,041:    -48  63  76
1720775789,041:    -21  63  76
1720775789,041:     80  63  76
1720775789,041:    113  63  76
1720775789,041:     30  63  76
1720775789,041:    -57  63  76
1720775789,041:    -27  63  76
1720775789,041:     85  63  76
1720775789,072:    135  63  76
1720775789,072:     63  63  76
1720775789,072:    -28  63  76
1720775789,072:     -7  63  76
1720775789,072:    102  63  76
1720775789,072:    161  63  76
1720775789,072:     96  63  76
1720775789,072:      2  63  76
1720775789,072:     19  63  76
1720775789,072:    139  63  76
1720775789,072:    220  63  76
1720775789,072:    172  63  76
1720775789,072:     72  63  76
1720775789,072:     59  63  76
1720775789,072:    148  63  76
1720775789,103:    206  63  76
1720775789,103:    137  63  76
1720775789,103:     10  63  76
1720775789,103:    -22  63  76
1720775789,103:     71  63  76
1720775789,103:    160  63  76
1720775789,103:    128  63  76
1720775789,103:     23  63  76
1720775789,103:     -7  63  76
1720775789,103:     85  63  76
1720775789,103:    178  63  76
1720775789,103:    142  63  76
1720775789,103:     15  63  76
1720775789,103:    -47  63  76
1720775789,103:     30  63  76
1720775789,134:    135  63  76
1720775789,134:    128  63  76
1720775789,134:     19  63  76
1720775789,134:    -42  63  76
1720775789,134:     30  63  76
1720775789,134:    138  63  76
1720775789,134:    136  63  76
1720775789,134:     19  63  76
1720775789,134:    -61  63  76
1720775789,134:     -8  63  76
1720775789,134:    102  63  76
1720775789,134:    129  63  76
1720775789,134:     58  63  76
1720775789,134:     23  63  76
1720775789,134:    123  63  76
1720775789,165:    291  63  76
1720775789,165:    372  63  76
1720775789,165:    308  63  76
1720775789,165:    171  63  76
1720775789,165:     27  63  76
1720775789,165:   -179  63  76
1720775789,165:   -549  63  76
1720775789,165:  -1072  63  76
1720775789,165:  -1578  63  76
1720775789,165:  -1878  63  76
1720775789,165:  -1917  63  76
1720775789,165:  -1749  63  76
1720775789,165:  -1382  63  76
1720775789,165:   -693  63  76
1720775789,165:    460  63  76
1720775789,165:   2080  63  76
1720775789,165:   3997  63  76
1720775789,165:   5991  63  76
1720775789,165:   7933  63  76
1720775789,165:   9806  63  76
1720775789,165:  11597  63  76
1720775789,165:  13237  63  76
1720775789,165:  14607  63  76
1720775789,196:  15607  60  70
1720775789,196:  16192  60  70
1720775789,196:  16346  60  70
1720775789,196:  16037  60  70
1720775789,196:  15193  60  70
1720775789,196:  13726  60  70
1720775789,196:  11616  60  70
1720775789,228:   9009  60  70
1720775789,228:   6232  60  70
1720775789,228:   3659  60  70
1720775789,228:   1499  60  70
1720775789,228:   -274  60  70
1720775789,228:  -1795  60  70
1720775789,228:  -3063  60  70
1720775789,228:  -3883  60  70
1720775789,228:  -4052  60  70
1720775789,228:  -3634  60  70
1720775789,228:  -3007  60  70
1720775789,228:  -2608  60  70
1720775789,228:  -2613  60  70
1720775789,228:  -2870  60  70
1720775789,228:  -3114  60  70
1720775789,259:  -3245  60  70
1720775789,259:  -3371  60  70
1720775789,259:  -3612  60  70
1720775789,259:  -3919  60  70
1720775789,259:  -4110  60  70
1720775789,259:  -4079  60  70
1720775789,259:  -3898  60  70
1720775789,259:  -3715  60  70
1720775789,259:  -3575  60  70
1720775789,259:  -3407  60  70
1720775789,259:  -3179  60  70
1720775789,259:  -3007  60  70
1720775789,259:  -3031  60  70
1720775789,259:  -3220  60  70
1720775789,259:  -3367  60  70
1720775789,259:  -3295  60  70
1720775789,259:  -3052  60  70
1720775789,259:  -2820  60  70
1720775789,259:  -2701  60  70
1720775789,259:  -2624  60  70
1720775789,259:  -2490  60  70
1720775789,259:  -2339  60  70
1720775789,259:  -2299  60  70
1720775789,290:  -2390  60  70
1720775789,290:  -2465  60  70
1720775789,290:  -2376  60  70
1720775789,290:  -2156  60  70
1720775789,290:  -1980  60  70
1720775789,290:  -1947  60  70
1720775789,290:  -1971  60  70
1720775789,290:  -1908  60  70
1720775789,290:  -1757  60  70
1720775789,290:  -1653  60  70
1720775789,290:  -1677  60  70
1720775789,290:  -1739  60  70
1720775789,290:  -1693  60  70
1720775789,290:  -1533  60  70
1720775789,290:  -1402  60  70
1720775789,322:  -1404  60  70
1720775789,322:  -1468  60  70
1720775789,322:  -1444  60  70
1720775789,322:  -1308  60  70
1720775789,322:  -1192  60  70
1720775789,322:  -1206  60  70
1720775789,322:  -1286  60  70
1720775789,322:  -1277  60  70
1720775789,322:  -1139  60  70
1720775789,322:  -1005  60  70
1720775789,322:  -1001  60  70
1720775789,322:  -1087  60  70
1720775789,353:  -1106  60  70
1720775789,353:   -995  60  70
1720775789,353:   -866  60  70
1720775789,353:   -854  60  70
1720775789,353:   -935  60  70
1720775789,353:   -962  60  70
1720775789,353:   -864  60  70
1720775789,353:   -740  60  70
1720775789,353:   -726  60  70
1720775789,353:   -807  60  70
1720775789,353:   -836  60  70
1720775789,353:   -734  60  70
1720775789,353:   -600  60  70
1720775789,353:   -575  60  70
1720775789,353:   -660  60  70
1720775789,353:   -706  60  70
1720775789,353:   -621  60  70
1720775789,353:   -491  60  70
1720775789,353:   -466  60  70
1720775789,353:   -557  60  70
1720775789,353:   -618  60  70
1720775789,353:   -538  60  70
1720775789,353:   -392  60  70
1720775789,384:   -341  60  70
1720775789,384:   -418  60  70
1720775789,384:   -489  60  70
1720775789,384:   -429  60  70
1720775789,384:   -292  60  70
1720775789,384:   -234  60  70
1720775789,384:   -308  60  70
1720775789,384:   -392  60  70
1720775789,384:   -353  60  70
1720775789,384:   -220  60  70
1720775789,384:   -147  60  70
1720775789,384:   -202  60  70
1720775789,384:   -284  60  70
1720775789,384:   -256  60  70
1720775789,384:   -134  60  70
1720775789,416:    -59  60  70
1720775789,416:   -112  60  70
1720775789,416:   -201  60  70
1720775789,416:   -182  60  70
1720775789,416:    -53  60  70
1720775789,416:     47  60  70
1720775789,416:     19  60  70
1720775789,416:    -65  60  70
1720775789,416:    -60  60  70
1720775789,416:     59  60  70
1720775789,416:    160  60  70
1720775789,416:    134  60  70
1720775789,416:     40  60  70
1720775789,416:     28  60  70
1720775789,416:    142  60  70
1720775789,448:    264  60  70
1720775789,448:    273  60  70
1720775789,448:    207  60  70
1720775789,448:    206  60  70
1720775789,448:    322  60  70
1720775789,448:    446  60  70
1720775789,448:    461  60  70
1720775789,448:    392  60  70
1720775789,448:    379  60  70
1720775789,448:    482  60  70
1720775789,448:    597  60  70
1720775789,448:    598  60  70
1720775789,448:    505  60  70
1720775789,448:    461  60  70
1720775789,448:    536  60  70
1720775789,479:    633  60  70
1720775789,479:    615  60  70
1720775789,479:    491  60  70
1720775789,479:    408  60  70
1720775789,479:    459  60  70
1720775789,479:    558  60  70
1720775789,479:    558  60  70
1720775789,479:    441  60  70
1720775789,479:    345  60  70
1720775789,479:    376  60  70
1720775789,479:    466  60  70
1720775789,479:    469  60  70
1720775789,479:    353  60  70
1720775789,479:    248  60  70
1720775789,479:    271  60  70
1720775789,509:    369  60  70
1720775789,509:    395  60  70
1720775789,509:    297  60  70
1720775789,509:    193  60  70
1720775789,509:    206  60  70
1720775789,509:    300  60  70
1720775789,509:    330  60  70
1720775789,509:    238  60  70
1720775789,509:    129  60  70
1720775789,509:    136  60  70
1720775789,509:    239  60  70
1720775789,509:    292  60  70
1720775789,509:    218  60  70
1720775789,509:    111  60  70
1720775789,509:    109  60  70
1720775789,540:    208  60  70
1720775789,540:    269  60  70
1720775789,540:    205  60  70
1720775789,540:     95  60  70
1720775789,540:     86  60  70
1720775789,540:    186  60  70
1720775789,540:    263  60  70
1720775789,540:    220  60  70
1720775789,540:    126  60  70
1720775789,540:    121  60  70
1720775789,540:    224  60  70
1720775789,540:    300  60  70
1720775789,540:    244  60  70
1720775789,540:    122  60  70
1720775789,540:     94  60  70
1720775789,571:    196  60  70
1720775789,571:    297  60  70
1720775789,571:    270  60  70
1720775789,571:    156  60  70
1720775789,571:    112  60  70
1720775789,571:    198  60  70
1720775789,571:    300  60  70
1720775789,571:    284  60  70
1720775789,571:    175  60  70
1720775789,571:    121  60  70
1720775789,571:    196  60  70
1720775789,571:    298  60  70
1720775789,571:    290  60  70
1720775789,571:    180  60  70
1720775789,571:    114  60  70
1720775789,602:    177  60  70
1720775789,602:    280  60  70
1720775789,602:    281  60  70
1720775789,602:    169  60  70
1720775789,602:     86  60  70
1720775789,602:    135  60  70
1720775789,602:    247  60  70
1720775789,602:    273  60  70
1720775789,602:    184  60  70
1720775789,602:    104  60  70
1720775789,602:    143  60  70
1720775789,602:    245  60  70
1720775789,602:    267  60  70
1720775789,602:    170  60  70
1720775789,602:     76  60  70
1720775789,602:    104  60  70
1720775789,602:    211  60  70
1720775789,602:    249  60  70
1720775789,602:    163  60  70
1720775789,602:     64  60  70
1720775789,602:     79  60  70
1720775789,602:    180  60  70
1720775789,632:    223  60  70
1720775789,632:    143  60  70
1720775789,632:     40  60  70
1720775789,632:     50  60  70
1720775789,632:    158  60  70
1720775789,632:    223  60  70
1720775789,632:    160  60  70
1720775789,632:     57  60  70
1720775789,664:     56  60  70
1720775789,664:    158  60  70
1720775789,664:    227  60  70
1720775789,664:    165  60  70
1720775789,664:     48  60  70
1720775789,664:     26  60  70
1720775789,664:    120  60  70
1720775789,664:    201  60  70
1720775789,664:    161  60  70
1720775789,664:     58  60  70
1720775789,664:     38  60  70
1720775789,664:    133  60  70
1720775789,664:    217  60  70
1720775789,664:    176  60  70
1720775789,664:     61  60  70
1720775789,695:     28  60  70
1720775789,695:    125  60  70
1720775789,695:    228  60  70
1720775789,695:    204  60  70
1720775789,695:     87  60  70
1720775789,695:     35  60  70
1720775789,695:    116  60  70
1720775789,695:    217  60  70
1720775789,695:    198  60  70
1720775789,695:     74  60  70
1720775789,695:      3  60  70
1720775789,695:     73  60  70
1720775789,695:    184  60  70
1720775789,695:    187  60  70
1720775789,695:     79  60  70
1720775789,695:      7  60  70
1720775789,695:     74  60  70
1720775789,695:    192  60  70
1720775789,695:    206  60  70
1720775789,695:     95  60  70
1720775789,695:      6  60  70
1720775789,695:     58  60  70
1720775789,727:    186  60  70
1720775789,727:    227  60  70
1720775789,727:    136  60  70
1720775789,727:     39  60  70
1720775789,727:     64  60  70
1720775789,727:    171  60  70
1720775789,727:    207  60  70
1720775789,727:    114  60  70
1720775789,727:      7  60  70
1720775789,727:     18  60  70
1720775789,727:    122  60  70
1720775789,727:    175  60  70
1720775789,727:    106  60  70
1720775789,727:      9  60  70
1720775789,727:     16  60  70
1720775789,759:    115  60  70
1720775789,759:    171  60  70
1720775789,759:    108  60  70
1720775789,759:     11  60  70
1720775789,759:     11  60  70
1720775789,759:    107  60  70
1720775789,759:    169  60  70
1720775789,759:    112  60  70
1720775789,759:     13  60  70
1720775789,759:      7  60  70
1720775789,759:    102  60  70
1720775789,759:    170  60  70
1720775789,759:    119  60  70
1720775789,759:     15  60  70
1720775789,759:     -1  60  70
1720775789,789:     97  60  70
1720775789,789:    184  60  70
1720775789,789:    154  60  70
1720775789,789:     56  60  70
1720775789,789:     32  60  70
1720775789,789:    121  60  70
1720775789,789:    205  60  70
1720775789,789:    172  60  70
1720775789,789:     64  60  70
1720775789,789:     31  60  70
1720775789,789:    124  60  70
1720775789,789:    230  60  70
1720775789,789:    216  60  70
1720775789,789:    104  60  70
1720775789,789:     48  60  70
1720775789,821:    122  60  70
1720775789,821:    227  60  70
1720775789,821:    220  60  70
1720775789,821:    105  60  70
1720775789,821:     30  60  70
1720775789,821:     91  60  70
1720775789,821:    203  60  70
1720775789,821:    217  60  70
1720775789,821:    118  60  70
1720775789,821:     45  60  70
1720775789,821:    101  60  70
1720775789,821:    215  60  70
1720775789,821:    237  60  70
1720775789,821:    136  60  70
1720775789,821:     49  60  70
1720775789,821:     93  60  70
1720775789,821:    212  60  70
1720775789,821:    253  60  70
1720775789,821:    167  60  70
1720775789,821:     75  60  70
1720775789,821:    107  60  70
1720775789,821:    223  60  70
1720775789,821:    269  60  70
1720775789,851:    181  60  70
1720775789,851:     74  60  70
1720775789,851:     92  60  70
1720775789,851:    211  60  70
1720775789,851:    275  60  70
1720775789,851:    199  60  70
1720775789,851:     82  60  70
1720775789,883:     79  60  70
1720775789,883:    189  60  70
1720775789,883:    263  60  70
1720775789,883:    198  60  70
1720775789,883:     77  60  70
1720775789,883:     58  60  70
1720775789,883:    161  60  70
1720775789,883:    248  60  70
1720775789,883:    208  60  70
1720775789,883:    102  60  70
1720775789,883:     81  60  70
1720775789,883:    179  60  70
1720775789,883:    265  60  70
1720775789,883:    223  60  70
1720775789,883:    103  60  70
1720775789,915:     61  60  70
1720775789,915:    147  60  70
1720775789,915:    244  60  70
1720775789,915:    224  60  70
1720775789,915:    118  60  70
1720775789,915:     74  60  70
1720775789,915:    152  60  70
1720775789,915:    248  60  70
1720775789,915:    233  60  70
1720775789,915:    128  60  70
1720775789,915:     78  60  70
1720775789,915:    153  60  70
1720775789,915:    257  60  70
1720775789,915:    256  60  70
1720775789,915:    159  60  70
1720775789,915:    104  60  70
1720775789,915:    169  60  70
1720775789,915:    267  60  70
1720775789,915:    262  60  70
1720775789,915:    153  60  70
1720775789,915:     83  60  70
1720775789,915:    147  60  70
1720775789,915:    265  60  70
1720775789,946:    287  60  70
1720775789,946:    192  60  70
1720775789,946:    112  60  70
1720775789,946:    161  60  70
1720775789,946:    271  60  70
1720775789,946:    294  60  70
1720775789,946:    190  60  70
1720775789,946:     90  60  70
1720775789,946:    122  60  70
1720775789,946:    239  60  70
1720775789,946:    286  60  70
1720775789,946:    203  60  70
1720775789,946:    108  60  70
1720775789,946:    135  60  70
1720775789,946:    252  60  70
1720775789,976:    305  60  70
1720775789,976:    222  60  70
1720775789,976:    110  60  70
1720775789,976:    116  60  70
1720775789,976:    227  60  70
1720775789,976:    295  60  70
1720775789,976:    229  60  70
1720775789,976:    118  60  70
1720775789,976:    108  60  70
1720775789,976:    206  60  70
1720775789,976:    271  60  70
1720775789,976:    210  60  70
1720775789,976:    102  60  70
1720775789,976:     93  60  70
1720775789,976:    198  60  70
1720775790,008:    277  60  70
1720775790,008:    226  60  70
1720775790,008:    117  60  70
1720775790,008:    102  60  70
1720775790,008:    208  60  70
1720775790,008:    299  60  70
1720775790,008:    257  60  70
1720775790,008:    135  60  70
1720775790,008:     93  60  70
1720775790,008:    183  60  70
1720775790,008:    281  60  70
1720775790,008:    260  60  70
1720775790,008:    150  60  70
1720775790,008:    103  60  70
1720775790,008:    179  60  70
1720775790,038:    269  60  70
1720775790,038:    244  60  70
1720775790,038:    126  60  70
1720775790,038:     68  60  70
1720775790,038:    141  60  70
1720775790,038:    245  60  70
1720775790,038:    237  60  70
1720775790,038:    124  60  70
1720775790,038:     52  60  70
1720775790,038:    109  60  70
1720775790,038:    210  60  70
1720775790,038:    214  60  70
1720775790,038:    112  60  70
1720775790,038:     41  60  70
1720775790,038:     99  60  70
1720775790,069:    208  60  70
1720775790,069:    226  60  70
1720775790,069:    132  60  70
1720775790,069:     53  60  70
1720775790,069:     96  60  70
1720775790,069:    196  60  70
1720775790,069:    214  60  70
1720775790,069:    120  60  70
1720775790,069:     43  60  70
1720775790,069:     96  60  70
1720775790,069:    225  60  70
1720775790,069:    278  60  70
1720775790,069:    203  60  70
1720775790,069:    115  60  70
1720775790,069:    141  60  70
1720775790,100:    244  60  70
1720775790,100:    276  60  70
1720775790,100:    173  60  70
1720775790,100:     51  60  70
1720775790,100:     54  60  70
1720775790,100:    168  60  70
1720775790,100:    239  60  70
1720775790,100:    177  60  70
1720775790,100:     70  60  70
1720775790,100:     67  60  70
1720775790,100:    173  60  70
1720775790,100:    243  60  70
1720775790,100:    176  60  70
1720775790,100:     48  60  70
1720775790,100:     22  60  70
1720775790,132:    123  60  70
1720775790,132:    213  60  70
1720775790,132:    172  60  70
1720775790,132:     55  60  70
1720775790,132:     21  60  70
1720775790,132:    111  60  70
1720775790,132:    200  60  70
1720775790,132:    163  60  70
1720775790,132:     40  60  70
1720775790,132:    -13  60  70
1720775790,132:     64  60  70
1720775790,132:    164  60  70
1720775790,132:    162  60  70
1720775790,132:     87  60  70
1720775790,132:     82  60  70
1720775790,164:    211  60  70
1720775790,164:    365  60  70
1720775790,164:    387  60  70
1720775790,164:    236  60  70
1720775790,164:     11  60  70
1720775790,164:   -212  60  70
1720775790,164:   -489  60  70
1720775790,164:   -911  60  70
1720775790,164:  -1441  60  70
1720775790,164:  -1875  60  70
1720775790,164:  -2020  60  70
1720775790,164:  -1849  60  70
1720775790,164:  -1451  60  70
1720775790,164:   -842  60  70
1720775790,164:    112  60  70
1720775790,164:   1558  60  70
1720775790,164:   3447  60  70
1720775790,164:   5513  60  70
1720775790,164:   7487  60  70
1720775790,164:   9293  60  70
1720775790,164:  11023  60  70
1720775790,164:  12722  60  70
1720775790,195:  14247  60  64
1720775790,195:  15369  60  64
1720775790,195:  15974  60  64
1720775790,195:  16126  60  64
1720775790,195:  15901  60  64
1720775790,195:  15219  60  64
1720775790,195:  13877  60  64
1720775790,195:  11788  60  64
1720775790,195:   9164  60  64
1720775790,195:   6427  60  64
1720775790,195:   3938  60  64
1720775790,195:   1806  60  64
1720775790,195:    -47  60  64
1720775790,195:  -1668  60  64
1720775790,195:  -2956  60  64
1720775790,227:  -3732  60  64
1720775790,227:  -3909  60  64
1720775790,227:  -3603  60  64
1720775790,227:  -3093  60  64
1720775790,227:  -2691  60  64
1720775790,227:  -2591  60  64
1720775790,227:  -2779  60  64
1720775790,227:  -3084  60  64
1720775790,227:  -3325  60  64
1720775790,227:  -3474  60  64
1720775790,227:  -3631  60  64
1720775790,227:  -3871  60  64
1720775790,227:  -4112  60  64
1720775790,227:  -4192  60  64
1720775790,227:  -4050  60  64
1720775790,258:  -3799  60  64
1720775790,258:  -3594  60  64
1720775790,258:  -3465  60  64
1720775790,258:  -3339  60  64
1720775790,258:  -3203  60  64
1720775790,258:  -3162  60  64
1720775790,258:  -3286  60  64
1720775790,258:  -3469  60  64
1720775790,258:  -3502  60  64
1720775790,258:  -3303  60  64
1720775790,258:  -3011  60  64
1720775790,258:  -2818  60  64
1720775790,258:  -2764  60  64
1720775790,258:  -2726  60  64
1720775790,258:  -2617  60  64
1720775790,290:  -2506  60  64
1720775790,290:  -2506  60  64
1720775790,290:  -2593  60  64
1720775790,290:  -2608  60  64
1720775790,290:  -2452  60  64
1720775790,290:  -2222  60  64
1720775790,290:  -2090  60  64
1720775790,290:  -2101  60  64
1720775790,290:  -2125  60  64
1720775790,290:  -2040  60  64
1720775790,290:  -1893  60  64
1720775790,290:  -1823  60  64
1720775790,290:  -1865  60  64
1720775790,290:  -1893  60  64
1720775790,290:  -1786  60  64
1720775790,321:  -1599  60  64
1720775790,321:  -1492  60  64
1720775790,321:  -1528  60  64
1720775790,321:  -1590  60  64
1720775790,321:  -1535  60  64
1720775790,321:  -1384  60  64
1720775790,321:  -1290  60  64
1720775790,321:  -1327  60  64
1720775790,321:  -1396  60  64
1720775790,321:  -1352  60  64
1720775790,321:  -1207  60  64
1720775790,321:  -1106  60  64
1720775790,354:  -1137  60  64
1720775790,354:  -1212  60  64
1720775790,354:  -1183  60  64
1720775790,354:  -1048  60  64
1720775790,354:   -949  60  64
1720775790,354:   -983  60  64
1720775790,354:  -1068  60  64
1720775790,354:  -1054  60  64
1720775790,354:   -926  60  64
1720775790,354:   -825  60  64
1720775790,354:   -860  60  64
1720775790,354:   -961  60  64
1720775790,354:   -969  60  64
1720775790,354:   -847  60  64
1720775790,354:   -728  60  64
1720775790,385:   -736  60  64
1720775790,385:   -826  60  64
1720775790,385:   -845  60  64
1720775790,385:   -741  60  64
1720775790,385:   -629  60  64
1720775790,385:   -639  60  64
1720775790,385:   -737  60  64
1720775790,385:   -771  60  64
1720775790,385:   -674  60  64
1720775790,385:   -550  60  64
1720775790,385:   -534  60  64
1720775790,385:   -616  60  64
1720775790,385:   -651  60  64
1720775790,385:   -556  60  64
1720775790,385:   -427  60  64
1720775790,385:   -404  60  64
1720775790,385:   -492  60  64
1720775790,385:   -550  60  64
1720775790,385:   -481  60  64
1720775790,385:   -360  60  64
1720775790,385:   -329  60  64
1720775790,385:   -409  60  64
1720775790,385:   -472  60  64
1720775790,416:   -411  60  64
1720775790,416:   -287  60  64
1720775790,416:   -247  60  64
1720775790,416:   -325  60  64
1720775790,416:   -399  60  64
1720775790,416:   -348  60  64
1720775790,416:   -216  60  64
1720775790,416:   -154  60  64
1720775790,416:   -216  60  64
1720775790,416:   -289  60  64
1720775790,416:   -246  60  64
1720775790,416:   -115  60  64
1720775790,416:    -45  60  64
1720775790,416:   -102  60  64
1720775790,416:   -179  60  64
1720775790,447:   -134  60  64
1720775790,447:     17  60  64
1720775790,447:    123  60  64
1720775790,447:     96  60  64
1720775790,447:     26  60  64
1720775790,447:     64  60  64
1720775790,447:    214  60  64
1720775790,447:    330  60  64
1720775790,447:    310  60  64
1720775790,447:    229  60  64
1720775790,447:    241  60  64
1720775790,447:    368  60  64
1720775790,447:    475  60  64
1720775790,447:    453  60  64
1720775790,447:    358  60  64
1720775790,477:    339  60  64
1720775790,477:    428  60  64
1720775790,477:    502  60  64
1720775790,477:    448  60  64
1720775790,477:    319  60  64
1720775790,477:    267  60  64
1720775790,477:    341  60  64
1720775790,477:    420  60  64
1720775790,477:    379  60  64
1720775790,477:    253  60  64
1720775790,477:    191  60  64
1720775790,477:    257  60  64
1720775790,477:    341  60  64
1720775790,477:    313  60  64
1720775790,477:    190  60  64
1720775790,508:    121  60  64
1720775790,508:    184  60  64
1720775790,508:    281  60  64
1720775790,508:    271  60  64
1720775790,508:    154  60  64
1720775790,508:     75  60  64
1720775790,508:    123  60  64
1720775790,508:    215  60  64
1720775790,508:    209  60  64
1720775790,508:     94  60  64
1720775790,508:     10  60  64
1720775790,508:     59  60  64
1720775790,508:    169  60  64
1720775790,508:    190  60  64
1720775790,508:     95  60  64
1720775790,539:     10  60  64
1720775790,539:     49  60  64
1720775790,539:    154  60  64
1720775790,539:    179  60  64
1720775790,539:     83  60  64
1720775790,539:    -13  60  64
1720775790,539:     16  60  64
1720775790,539:    128  60  64
1720775790,539:    175  60  64
1720775790,539:     98  60  64
1720775790,539:      5  60  64
1720775790,539:     26  60  64
1720775790,539:    134  60  64
1720775790,539:    183  60  64
1720775790,539:    104  60  64
1720775790,571:     -1  60  64
1720775790,571:      9  60  64
1720775790,571:    123  60  64
1720775790,571:    195  60  64
1720775790,571:    133  60  64
1720775790,571:     22  60  64
1720775790,571:      9  60  64
1720775790,571:    103  60  64
1720775790,571:    168  60  64
1720775790,571:    106  60  64
1720775790,571:    -11  60  64
1720775790,571:    -34  60  64
1720775790,571:     61  60  64
1720775790,571:    144  60  64
1720775790,571:    105  60  64
1720775790,571:      0  60  64
1720775790,571:    -25  60  64
1720775790,571:     66  60  64
1720775790,571:    150  60  64
1720775790,571:    110  60  64
1720775790,571:    -10  60  64
1720775790,571:    -57  60  64
1720775790,603:     26  60  64
1720775790,603:    126  60  64
1720775790,603:    115  60  64
1720775790,603:     12  60  64
1720775790,603:    -42  60  64
1720775790,603:     23  60  64
1720775790,603:    113  60  64
1720775790,603:    103  60  64
1720775790,603:     -2  60  64
1720775790,603:    -66  60  64
1720775790,603:    -11  60  64
1720775790,603:     82  60  64
1720775790,603:     84  60  64
1720775790,603:    -10  60  64
1720775790,603:    -73  60  64
1720775790,634:    -17  60  64
1720775790,634:     85  60  64
1720775790,634:     98  60  64
1720775790,634:      4  60  64
1720775790,634:    -69  60  64
1720775790,634:    -18  60  64
1720775790,634:     96  60  64
1720775790,634:    130  60  64
1720775790,634:     46  60  64
1720775790,634:    -38  60  64
1720775790,634:     -8  60  64
1720775790,634:     92  60  64
1720775790,634:    124  60  64
1720775790,634:     44  60  64
1720775790,634:    -41  60  64
1720775790,666:    -10  60  64
1720775790,666:     98  60  64
1720775790,666:    144  60  64
1720775790,666:     73  60  64
1720775790,666:    -12  60  64
1720775790,666:      9  60  64
1720775790,666:    109  60  64
1720775790,666:    149  60  64
1720775790,666:     67  60  64
1720775790,666:    -38  60  64
1720775790,666:    -32  60  64
1720775790,666:     67  60  64
1720775790,666:    120  60  64
1720775790,666:     51  60  64
1720775790,666:    -51  60  64
1720775790,698:    -50  60  64
1720775790,698:     54  60  64
1720775790,698:    122  60  64
1720775790,698:     64  60  64
1720775790,698:    -45  60  64
1720775790,698:    -59  60  64
1720775790,698:     40  60  64
1720775790,698:    126  60  64
1720775790,698:     93  60  64
1720775790,698:     -5  60  64
1720775790,698:    -31  60  64
1720775790,698:     51  60  64
1720775790,698:    125  60  64
1720775790,698:     86  60  64
1720775790,698:    -22  60  64
1720775790,729:    -58  60  64
1720775790,729:     25  60  64
1720775790,729:    116  60  64
1720775790,729:     98  60  64
1720775790,729:     -4  60  64
1720775790,729:    -50  60  64
1720775790,729:     23  60  64
1720775790,729:    115  60  64
1720775790,729:    101  60  64
1720775790,729:     -9  60  64
1720775790,729:    -73  60  64
1720775790,729:    -12  60  64
1720775790,729:     88  60  64
1720775790,729:     94  60  64
1720775790,729:     -3  60  64
1720775790,761:    -73  60  64
1720775790,761:    -23  60  64
1720775790,761:     77  60  64
1720775790,761:     90  60  64
1720775790,761:    -10  60  64
1720775790,761:    -97  60  64
1720775790,761:    -63  60  64
1720775790,761:     40  60  64
1720775790,761:     74  60  64
1720775790,761:     -5  60  64
1720775790,761:    -88  60  64
1720775790,761:    -66  60  64
1720775790,761:     26  60  64
1720775790,761:     61  60  64
1720775790,761:    -13  60  64
1720775790,793:    -96  60  64
1720775790,793:    -76  60  64
1720775790,793:     23  60  64
1720775790,793:     69  60  64
1720775790,793:      7  60  64
1720775790,793:    -71  60  64
1720775790,793:    -46  60  64
1720775790,793:     62  60  64
1720775790,793:    116  60  64
1720775790,793:     49  60  64
1720775790,793:    -52  60  64
1720775790,793:    -50  60  64
1720775790,793:     52  60  64
1720775790,793:    118  60  64
1720775790,793:     61  60  64
1720775790,793:    -46  60  64
1720775790,793:    -61  60  64
1720775790,793:     32  60  64
1720775790,793:    105  60  64
1720775790,793:     54  60  64
1720775790,793:    -59  60  64
1720775790,793:    -88  60  64
1720775790,793:      4  60  64
1720775790,823:     97  60  64
1720775790,823:     73  60  64
1720775790,823:    -29  60  64
1720775790,823:    -64  60  64
1720775790,823:     20  60  64
1720775790,823:    117  60  64
1720775790,823:    103  60  64
1720775790,823:      1  60  64
1720775790,823:    -48  60  64
1720775790,823:     22  60  64
1720775790,823:    117  60  64
1720775790,823:    113  60  64
1720775790,823:     22  60  64
1720775790,823:    -26  60  64
1720775790,823:     39  60  64
1720775790,855:    129  60  64
1720775790,855:    120  60  64
1720775790,855:     16  60  64
1720775790,855:    -51  60  64
1720775790,855:      3  60  64
1720775790,855:     98  60  64
1720775790,855:    103  60  64
1720775790,855:      6  60  64
1720775790,855:    -68  60  64
1720775790,855:    -24  60  64
1720775790,855:     72  60  64
1720775790,855:     89  60  64
1720775790,855:      0  60  64
1720775790,855:    -77  60  64
1720775790,855:    -40  60  64
1720775790,885:     63  60  64
1720775790,885:     96  60  64
1720775790,885:     18  60  64
1720775790,885:    -66  60  64
1720775790,885:    -42  60  64
1720775790,885:     58  60  64
1720775790,885:     97  60  64
1720775790,885:     22  60  64
1720775790,885:    -69  60  64
1720775790,885:    -48  60  64
1720775790,885:     64  60  64
1720775790,885:    127  60  64
1720775790,885:     68  60  64
1720775790,885:    -27  60  64
1720775790,885:    -26  60  64
1720775790,915:     70  60  64
1720775790,915:    126  60  64
1720775790,915:     60  60  64
1720775790,915:    -45  60  64
1720775790,915:    -52  60  64
1720775790,915:     48  60  64
1720775790,915:    122  60  64
1720775790,915:     76  60  64
1720775790,915:    -21  60  64
1720775790,915:    -29  60  64
1720775790,915:     71  60  64
1720775790,915:    149  60  64
1720775790,915:    103  60  64
1720775790,915:     -8  60  64
1720775790,915:    -36  60  64
1720775790,946:     56  60  64
1720775790,946:    146  60  64
1720775790,946:    118  60  64
1720775790,946:     14  60  64
1720775790,946:    -22  60  64
1720775790,946:     61  60  64
1720775790,946:    152  60  64
1720775790,946:    129  60  64
1720775790,946:     19  60  64
1720775790,946:    -31  60  64
1720775790,946:     47  60  64
1720775790,946:    154  60  64
1720775790,946:    154  60  64
1720775790,946:     55  60  64
1720775790,946:     -4  60  64
1720775790,977:     65  60  64
1720775790,977:    174  60  64
1720775790,977:    179  60  64
1720775790,977:     70  60  64
1720775790,977:    -18  60  64
1720775790,977:     24  60  64
1720775790,977:    129  60  64
1720775790,977:    151  60  64
1720775790,977:     56  60  64
1720775790,977:    -34  60  64
1720775790,977:     -3  60  64
1720775790,977:     97  60  64
1720775790,977:    125  60  64
1720775790,977:     36  60  64
1720775790,977:    -58  60  64
1720775791,009:    -32  60  64
1720775791,009:     80  60  64
1720775791,009:    134  60  64
1720775791,009:     67  60  64
1720775791,009:    -26  60  64
1720775791,009:    -20  60  64
1720775791,009:     67  60  64
1720775791,009:    108  60  64
1720775791,009:     35  60  64
1720775791,009:    -64  60  64
1720775791,009:    -63  60  64
1720775791,009:     32  60  64
1720775791,009:     95  60  64
1720775791,009:     45  60  64
1720775791,009:    -45  60  64
1720775791,040:    -47  60  64
1720775791,040:     45  60  64
1720775791,040:    110  60  64
1720775791,040:     61  60  64
1720775791,040:    -35  60  64
1720775791,040:    -44  60  64
1720775791,040:     59  60  64
1720775791,040:    154  60  64
1720775791,040:    140  60  64
1720775791,040:     62  60  64
1720775791,040:     51  60  64
1720775791,040:    138  60  64
1720775791,040:    214  60  64
1720775791,040:    175  60  64
1720775791,040:     62  60  64
1720775791,040:     11  60  64
1720775791,040:     71  60  64
1720775791,040:    140  60  64
1720775791,040:    108  60  64
1720775791,040:      5  60  64
1720775791,040:    -36  60  64
1720775791,040:     40  60  64
1720775791,071:    130  60  64
1720775791,071:    117  60  64
1720775791,071:     17  60  64
1720775791,071:    -33  60  64
1720775791,071:     33  60  64
1720775791,071:    123  60  64
1720775791,071:    108  60  64
1720775791,071:     -5  60  64
1720775791,071:    -77  60  64
1720775791,071:    -20  60  64
1720775791,071:     80  60  64
1720775791,071:     80  60  64
1720775791,071:    -34  60  64
1720775791,071:   -123  60  64
1720775791,071:    -79  60  64
1720775791,102:     32  60  64
1720775791,102:     58  60  64
1720775791,102:    -39  60  64
1720775791,102:   -130  60  64
1720775791,102:    -85  60  64
1720775791,102:     54  60  64
1720775791,102:    133  60  64
1720775791,102:     92  60  64
1720775791,133:     48  60  64
1720775791,133:    119  60  64
1720775791,133:    232  60  64
1720775791,133:    178  60  64
1720775791,133:   -140  60  64
1720775791,133:   -593  60  64
1720775791,133:   -992  60  64
1720775791,133:  -1308  60  64
1720775791,133:  -1644  60  64
1720775791,133:  -2000  60  64
1720775791,133:  -2171  60  64
1720775791,133:  -1924  60  64
1720775791,133:  -1237  60  64
1720775791,133:   -264  60  64
1720775791,133:    919  60  64
1720775791,164:   2427  60  64
1720775791,164:   4357  60  64
1720775791,164:   6533  60  64
1720775791,164:   8583  60  64
1720775791,164:  10301  60  64
1720775791,164:  11815  60  64
1720775791,164:  13338  60  64
1720775791,164:  14790  60  64
1720775791,164:  15805  60  64
1720775791,164:  16120  60  64
1720775791,164:  15836  60  64
1720775791,164:  15207  60  64
1720775791,164:  14226  60  64
1720775791,164:  12585  60  64
1720775791,164:  10124  60  64
1720775791,164:   7201  60  64
1720775791,164:   4484  60  64
1720775791,164:   2358  60  64
1720775791,164:    653  60  64
1720775791,164:   -986  60  64
1720775791,164:  -2564  60  64
1720775791,164:  -3672  60  64
1720775791,195:  -3972  62  61
1720775791,195:  -3613  62  61
1720775791,195:  -3101  62  61
1720775791,195:  -2821  62  61
1720775791,195:  -2788  62  61
1720775791,195:  -2835  62  61
1720775791,195:  -2915  62  61
1720775791,195:  -3114  62  61
1720775791,195:  -3447  62  61
1720775791,195:  -3766  62  61
1720775791,195:  -3930  62  61
1720775791,195:  -3974  62  61
1720775791,195:  -4029  62  61
1720775791,195:  -4111  62  61
1720775791,195:  -4074  62  61
1720775791,226:  -3816  62  61
1720775791,226:  -3451  62  61
1720775791,226:  -3212  62  61
1720775791,226:  -3209  62  61
1720775791,226:  -3327  62  61
1720775791,226:  -3392  62  61
1720775791,226:  -3365  62  61
1720775791,226:  -3334  62  61
1720775791,226:  -3332  62  61
1720775791,226:  -3265  62  61
1720775791,226:  -3039  62  61
1720775791,226:  -2734  62  61
1720775791,226:  -2541  62  61
1720775791,226:  -2553  62  61
1720775791,226:  -2652  62  61
1720775791,257:  -2659  62  61
1720775791,257:  -2541  62  61
1720775791,257:  -2419  62  61
1720775791,257:  -2390  62  61
1720775791,257:  -2386  62  61
1720775791,257:  -2283  62  61
1720775791,257:  -2082  62  61
1720775791,257:  -1928  62  61
1720775791,257:  -1926  62  61
1720775791,257:  -2005  62  61
1720775791,257:  -1999  62  61
1720775791,257:  -1864  62  61
1720775791,257:  -1719  62  61
1720775791,257:  -1686  62  61
1720775791,257:  -1725  62  61
1720775791,288:  -1694  62  61
1720775791,288:  -1546  62  61
1720775791,288:  -1399  62  61
1720775791,288:  -1379  62  61
1720775791,288:  -1452  62  61
1720775791,288:  -1465  62  61
1720775791,288:  -1349  62  61
1720775791,288:  -1207  62  61
1720775791,288:  -1176  62  61
1720775791,288:  -1246  62  61
1720775791,288:  -1270  62  61
1720775791,288:  -1165  62  61
1720775791,288:  -1020  62  61
1720775791,288:   -974  62  61
1720775791,288:  -1037  62  61
1720775791,319:  -1074  62  61
1720775791,319:   -995  62  61
1720775791,319:   -871  62  61
1720775791,319:   -838  62  61
1720775791,319:   -911  62  61
1720775791,319:   -960  62  61
1720775791,319:   -887  62  61
1720775791,319:   -755  62  61
1720775791,319:   -705  62  61
1720775791,319:   -764  62  61
1720775791,319:   -817  62  61
1720775791,319:   -759  62  61
1720775791,319:   -643  62  61
1720775791,319:   -604  62  61
1720775791,319:   -678  62  61
1720775791,319:   -747  62  61
1720775791,319:   -699  62  61
1720775791,319:   -578  62  61
1720775791,319:   -525  62  61
1720775791,319:   -590  62  61
1720775791,351:   -665  62  61
1720775791,351:   -625  62  61
1720775791,351:   -501  62  61
1720775791,351:   -439  62  61
1720775791,351:   -506  62  61
1720775791,351:   -598  62  61
1720775791,351:   -572  62  61
1720775791,351:   -439  62  61
1720775791,351:   -345  62  61
1720775791,351:   -380  62  61
1720775791,351:   -465  62  61
1720775791,351:   -455  62  61
1720775791,351:   -340  62  61
1720775791,351:   -250  62  61
1720775791,351:   -284  62  61
1720775791,383:   -370  62  61
1720775791,383:   -365  62  61
1720775791,383:   -248  62  61
1720775791,383:   -147  62  61
1720775791,383:   -169  62  61
1720775791,383:   -255  62  61
1720775791,383:   -262  62  61
1720775791,383:   -156  62  61
1720775791,383:    -55  62  61
1720775791,383:    -70  62  61
1720775791,383:   -155  62  61
1720775791,383:   -165  62  61
1720775791,383:    -51  62  61
1720775791,383:     76  62  61
1720775791,383:     94  62  61
1720775791,415:     32  62  61
1720775791,415:     25  62  61
1720775791,415:    136  62  61
1720775791,415:    265  62  61
1720775791,415:    289  62  61
1720775791,415:    222  62  61
1720775791,415:    202  62  61
1720775791,415:    304  62  61
1720775791,415:    437  62  61
1720775791,415:    466  62  61
1720775791,415:    388  62  61
1720775791,415:    336  62  61
1720775791,415:    405  62  61
1720775791,415:    521  62  61
1720775791,415:    541  62  61
1720775791,446:    445  62  61
1720775791,446:    363  62  61
1720775791,446:    406  62  61
1720775791,446:    516  62  61
1720775791,446:    546  62  61
1720775791,446:    454  62  61
1720775791,446:    359  62  61
1720775791,446:    383  62  61
1720775791,446:    482  62  61
1720775791,446:    510  62  61
1720775791,446:    408  62  61
1720775791,446:    289  62  61
1720775791,446:    287  62  61
1720775791,446:    381  62  61
1720775791,446:    427  62  61
1720775791,478:    349  62  61
1720775791,478:    240  62  61
1720775791,478:    237  62  61
1720775791,478:    331  62  61
1720775791,478:    386  62  61
1720775791,478:    316  62  61
1720775791,478:    206  62  61
1720775791,478:    196  62  61
1720775791,478:    294  62  61
1720775791,478:    362  62  61
1720775791,478:    302  62  61
1720775791,478:    186  62  61
1720775791,478:    163  62  61
1720775791,478:    257  62  61
1720775791,478:    334  62  61
1720775791,478:    280  62  61
1720775791,478:    153  62  61
1720775791,478:    108  62  61
1720775791,478:    192  62  61
1720775791,478:    284  62  61
1720775791,478:    259  62  61
1720775791,478:    147  62  61
1720775791,478:     96  62  61
1720775791,508:    166  62  61
1720775791,508:    252  62  61
1720775791,508:    230  62  61
1720775791,508:    125  62  61
1720775791,508:     76  62  61
1720775791,508:    150  62  61
1720775791,508:    252  62  61
1720775791,508:    255  62  61
1720775791,508:    171  62  61
1720775791,508:    131  62  61
1720775791,508:    202  62  61
1720775791,508:    294  62  61
1720775791,508:    282  62  61
1720775791,508:    173  62  61
1720775791,508:    107  62  61
1720775791,539:    164  62  61
1720775791,539:    260  62  61
1720775791,539:    260  62  61
1720775791,539:    153  62  61
1720775791,539:     72  62  61
1720775791,539:    113  62  61
1720775791,539:    208  62  61
1720775791,570:    219  62  61
1720775791,570:    120  62  61
1720775791,570:     35  62  61
1720775791,570:     69  62  61
1720775791,570:    168  62  61
1720775791,570:    198  62  61
1720775791,570:    120  62  61
1720775791,570:     43  62  61
1720775791,570:     74  62  61
1720775791,570:    164  62  61
1720775791,570:    184  62  61
1720775791,570:     92  62  61
1720775791,570:      2  62  61
1720775791,570:     28  62  61
1720775791,570:    133  62  61
1720775791,570:    178  62  61
1720775791,570:    105  62  61
1720775791,570:     15  62  61
1720775791,570:     32  62  61
1720775791,570:    134  62  61
1720775791,570:    185  62  61
1720775791,570:    115  62  61
1720775791,570:     15  62  61
1720775791,602:     19  62  61
1720775791,602:    120  62  61
1720775791,602:    184  62  61
1720775791,602:    123  62  61
1720775791,602:     14  62  61
1720775791,602:     -3  62  61
1720775791,602:     89  62  61
1720775791,602:    161  62  61
1720775791,602:    111  62  61
1720775791,602:     -1  62  61
1720775791,602:    -28  62  61
1720775791,602:     67  62  61
1720775791,602:    165  62  61
1720775791,602:    147  62  61
1720775791,602:     50  62  61
1720775791,633:     15  62  61
1720775791,633:     94  62  61
1720775791,633:    184  62  61
1720775791,633:    166  62  61
1720775791,633:     61  62  61
1720775791,633:     10  62  61
1720775791,633:     78  62  61
1720775791,633:    173  62  61
1720775791,633:    170  62  61
1720775791,633:     80  62  61
1720775791,633:     32  62  61
1720775791,633:     95  62  61
1720775791,633:    184  62  61
1720775791,633:    176  62  61
1720775791,633:     77  62  61
1720775791,665:     17  62  61
1720775791,665:     77  62  61
1720775791,665:    175  62  61
1720775791,665:    177  62  61
1720775791,665:     76  62  61
1720775791,665:      4  62  61
1720775791,665:     55  62  61
1720775791,665:    159  62  61
1720775791,665:    173  62  61
1720775791,665:     73  62  61
1720775791,665:    -12  62  61
1720775791,665:     26  62  61
1720775791,665:    133  62  61
1720775791,665:    166  62  61
1720775791,665:     82  62  61
1720775791,696:     -1  62  61
1720775791,696:     34  62  61
1720775791,696:    143  62  61
1720775791,696:    184  62  61
1720775791,696:    102  62  61
1720775791,696:      6  62  61
1720775791,696:     25  62  61
1720775791,696:    135  62  61
1720775791,696:    193  62  61
1720775791,696:    127  62  61
1720775791,696:     29  62  61
1720775791,696:     32  62  61
1720775791,696:    129  62  61
1720775791,696:    186  62  61
1720775791,696:    123  62  61
1720775791,727:     22  62  61
1720775791,727:     16  62  61
1720775791,727:    112  62  61
1720775791,727:    183  62  61
1720775791,727:    138  62  61
1720775791,727:     42  62  61
1720775791,727:     29  62  61
1720775791,727:    119  62  61
1720775791,727:    188  62  61
1720775791,727:    139  62  61
1720775791,727:     27  62  61
1720775791,727:     -4  62  61
1720775791,727:     87  62  61
1720775791,727:    181  62  61
1720775791,727:    160  62  61
1720775791,758:     56  62  61
1720775791,758:     12  62  61
1720775791,758:     88  62  61
1720775791,758:    179  62  61
1720775791,758:    162  62  61
1720775791,758:     51  62  61
1720775791,758:    -11  62  61
1720775791,758:     53  62  61
1720775791,758:    156  62  61
1720775791,758:    161  62  61
1720775791,758:     66  62  61
1720775791,758:      5  62  61
1720775791,758:     65  62  61
1720775791,758:    170  62  61
1720775791,758:    185  62  61
1720775791,789:     91  62  61
1720775791,789:     18  62  61
1720775791,789:     65  62  61
1720775791,789:    170  62  61
1720775791,789:    196  62  61
1720775791,789:    112  62  61
1720775791,789:     37  62  61
1720775791,789:     75  62  61
1720775791,789:    175  62  61
1720775791,789:    199  62  61
1720775791,789:    109  62  61
1720775791,789:     25  62  61
1720775791,789:     66  62  61
1720775791,789:    189  62  61
1720775791,789:    244  62  61
1720775791,821:    169  62  61
1720775791,821:     70  62  61
1720775791,821:     79  62  61
1720775791,821:    182  62  61
1720775791,821:    239  62  61
1720775791,821:    169  62  61
1720775791,821:     61  62  61
1720775791,821:     54  62  61
1720775791,821:    152  62  61
1720775791,821:    223  62  61
1720775791,821:    177  62  61
1720775791,821:     82  62  61
1720775791,821:     74  62  61
1720775791,821:    167  62  61
1720775791,821:    236  62  61
1720775791,852:    183  62  61
1720775791,852:     73  62  61
1720775791,852:     48  62  61
1720775791,852:    133  62  61
1720775791,852:    209  62  61
1720775791,852:    168  62  61
1720775791,852:     65  62  61
1720775791,852:     42  62  61
1720775791,852:    132  62  61
1720775791,852:    215  62  61
1720775791,852:    176  62  61
1720775791,852:     59  62  61
1720775791,852:     14  62  61
1720775791,852:     93  62  61
1720775791,852:    181  62  61
1720775791,852:    152  62  61
1720775791,852:     37  62  61
1720775791,852:    -18  62  61
1720775791,852:     55  62  61
1720775791,852:    150  62  61
1720775791,852:    136  62  61
1720775791,852:     27  62  61
1720775791,884:    -33  62  61
1720775791,884:     37  62  61
1720775791,884:    147  62  61
1720775791,884:    156  62  61
1720775791,884:     60  62  61
1720775791,884:     -8  62  61
1720775791,884:     46  62  61
1720775791,884:    150  62  61
1720775791,884:    168  62  61
1720775791,884:     79  62  61
1720775791,884:      8  62  61
1720775791,884:     56  62  61
1720775791,884:    164  62  61
1720775791,884:    193  62  61
1720775791,884:    111  62  61
1720775791,915:     35  62  61
1720775791,915:     71  62  61
1720775791,915:    169  62  61
1720775791,915:    192  62  61
1720775791,915:     98  62  61
1720775791,915:      2  62  61
1720775791,915:     24  62  61
1720775791,915:    127  62  61
1720775791,915:    168  62  61
1720775791,915:     91  62  61
1720775791,915:     -2  62  61
1720775791,915:     16  62  61
1720775791,915:    122  62  61
1720775791,915:    177  62  61
1720775791,915:    111  62  61
1720775791,947:     19  62  61
1720775791,947:     37  62  61
1720775791,947:    153  62  61
1720775791,947:    225  62  61
1720775791,947:    168  62  61
1720775791,947:     63  62  61
1720775791,947:     54  62  61
1720775791,947:    150  62  61
1720775791,947:    218  62  61
1720775791,947:    166  62  61
1720775791,947:     66  62  61
1720775791,947:     63  62  61
1720775791,947:    179  62  61
1720775791,947:    281  62  61
1720775791,947:    254  62  61
1720775791,978:    150  62  61
1720775791,978:    117  62  61
1720775791,978:    196  62  61
1720775791,978:    273  62  61
1720775791,978:    231  62  61
1720775791,978:    108  62  61
1720775791,978:     50  62  61
1720775791,978:    117  62  61
1720775791,978:    203  62  61
1720775791,978:    185  62  61
1720775791,978:     85  62  61
1720775791,978:     38  62  61
1720775791,978:    105  62  61
1720775791,978:    187  62  61
1720775791,978:    159  62  61
1720775792,010:     42  62  61
1720775792,010:    -23  62  61
1720775792,010:     42  62  61
1720775792,010:    147  62  61
1720775792,010:    154  62  61
1720775792,010:     55  62  61
1720775792,010:    -14  62  61
1720775792,010:     38  62  61
1720775792,010:    136  62  61
1720775792,010:    140  62  61
1720775792,010:     31  62  61
1720775792,010:    -62  62  61
1720775792,010:    -30  62  61
1720775792,010:     79  62  61
1720775792,010:    128  62  61
1720775792,042:     74  62  61
1720775792,042:     28  62  61
1720775792,042:    107  62  61
1720775792,042:    273  62  61
1720775792,042:    361  62  61
1720775792,042:    253  62  61
1720775792,042:     -9  62  61
1720775792,042:   -302  62  61
1720775792,042:   -591  62  61
1720775792,042:   -952  62  61
1720775792,042:  -1422  62  61
1720775792,042:  -1873  62  61
1720775792,042:  -2089  62  61
1720775792,042:  -1950  62  61
1720775792,042:  -1509  62  61
1720775792,042:   -850  62  61
1720775792,042:     76  62  61
1720775792,042:   1425  62  61
1720775792,042:   3238  62  61
1720775792,042:   5309  62  61
1720775792,042:   7325  62  61
1720775792,042:   9135  62  61
1720775792,042:  10829  62  61
1720775792,073:  12512  66  62
1720775792,073:  14074  66  62
1720775792,073:  15238  66  62
1720775792,073:  15823  66  62
1720775792,073:  15898  66  62
1720775792,073:  15597  66  62
1720775792,073:  14864  66  62
1720775792,073:  13464  66  62
1720775792,073:  11290  66  62
1720775792,073:   8609  66  62
1720775792,073:   5915  66  62
1720775792,073:   3564  66  62
1720775792,073:   1573  66  62
1720775792,073:   -207  66  62
1720775792,073:  -1792  66  62
1720775792,105:  -2997  66  62
1720775792,105:  -3628  66  62
1720775792,105:  -3684  66  62
1720775792,105:  -3366  66  62
1720775792,105:  -2941  66  62
1720775792,105:  -2624  66  62
1720775792,105:  -2549  66  62
1720775792,105:  -2729  66  62
1720775792,105:  -3051  66  62
1720775792,105:  -3338  66  62
1720775792,105:  -3502  66  62
1720775792,105:  -3610  66  62
1720775792,105:  -3774  66  62
1720775792,105:  -3984  66  62
1720775792,105:  -4089  66  62
1720775792,137:  -3968  66  62
1720775792,137:  -3689  66  62
1720775792,137:  -3436  66  62
1720775792,137:  -3312  66  62
1720775792,137:  -3262  66  62
1720775792,137:  -3200  66  62
1720775792,137:  -3151  66  62
1720775792,137:  -3198  66  62
1720775792,137:  -3320  66  62
1720775792,137:  -3362  66  62
1720775792,137:  -3200  66  62
1720775792,137:  -2898  66  62
1720775792,137:  -2646  66  62
1720775792,137:  -2558  66  62
1720775792,137:  -2561  66  62
1720775792,168:  -2522  66  62
1720775792,168:  -2429  66  62
1720775792,168:  -2377  66  62
1720775792,168:  -2411  66  62
1720775792,168:  -2437  66  62
1720775792,168:  -2330  66  62
1720775792,168:  -2110  66  62
1720775792,168:  -1932  66  62
1720775792,168:  -1901  66  62
1720775792,168:  -1950  66  62
1720775792,168:  -1930  66  62
1720775792,168:  -1809  66  62
1720775792,168:  -1697  66  62
1720775792,168:  -1690  66  62
1720775792,168:  -1733  66  62
1720775792,168:  -1694  66  62
1720775792,168:  -1547  66  62
1720775792,168:  -1411  66  62
1720775792,168:  -1395  66  62
1720775792,168:  -1454  66  62
1720775792,168:  -1448  66  62
1720775792,168:  -1328  66  62
1720775792,199:  -1204  66  62
1720775792,199:  -1192  66  62
1720775792,199:  -1261  66  62
1720775792,199:  -1268  66  62
1720775792,199:  -1154  66  62
1720775792,199:  -1023  66  62
1720775792,199:  -1007  66  62
1720775792,199:  -1087  66  62
1720775792,231:  -1122  66  62
1720775792,231:  -1031  66  62
1720775792,231:   -905  66  62
1720775792,231:   -879  66  62
1720775792,231:   -955  66  62
1720775792,231:   -995  66  62
1720775792,231:   -913  66  62
1720775792,231:   -788  66  62
1720775792,231:   -759  66  62
1720775792,231:   -839  66  62
1720775792,231:   -893  66  62
1720775792,231:   -819  66  62
1720775792,231:   -688  66  62
1720775792,231:   -645  66  62
1720775792,231:   -721  66  62
1720775792,261:   -787  66  62
1720775792,261:   -732  66  62
1720775792,261:   -613  66  62
1720775792,261:   -576  66  62
1720775792,261:   -658  66  62
1720775792,261:   -733  66  62
1720775792,261:   -679  66  62
1720775792,261:   -544  66  62
1720775792,261:   -479  66  62
1720775792,261:   -541  66  62
1720775792,261:   -618  66  62
1720775792,261:   -576  66  62
1720775792,261:   -443  66  62
1720775792,261:   -368  66  62
1720775792,261:   -427  66  62
1720775792,261:   -519  66  62
1720775792,261:   -502  66  62
1720775792,261:   -381  66  62
1720775792,261:   -294  66  62
1720775792,261:   -331  66  62
1720775792,261:   -414  66  62
1720775792,261:   -405  66  62
1720775792,292:   -293  66  62
1720775792,292:   -209  66  62
1720775792,292:   -250  66  62
1720775792,292:   -350  66  62
1720775792,292:   -361  66  62
1720775792,292:   -249  66  62
1720775792,292:   -136  66  62
1720775792,292:   -138  66  62
1720775792,292:   -217  66  62
1720775792,292:   -231  66  62
1720775792,292:   -129  66  62
1720775792,292:    -14  66  62
1720775792,292:     -4  66  62
1720775792,292:    -72  66  62
1720775792,292:    -83  66  62
1720775792,323:     23  66  62
1720775792,323:    149  66  62
1720775792,323:    175  66  62
1720775792,323:    118  66  62
1720775792,323:    111  66  62
1720775792,323:    220  66  62
1720775792,323:    350  66  62
1720775792,323:    372  66  62
1720775792,323:    293  66  62
1720775792,323:    253  66  62
1720775792,323:    338  66  62
1720775792,323:    464  66  62
1720775792,355:    492  66  62
1720775792,355:    408  66  62
1720775792,355:    344  66  62
1720775792,355:    393  66  62
1720775792,355:    490  66  62
1720775792,355:    498  66  62
1720775792,355:    395  66  62
1720775792,355:    309  66  62
1720775792,355:    347  66  62
1720775792,355:    448  66  62
1720775792,355:    470  66  62
1720775792,355:    370  66  62
1720775792,355:    269  66  62
1720775792,355:    282  66  62
1720775792,355:    371  66  62
1720775792,385:    394  66  62
1720775792,385:    296  66  62
1720775792,385:    183  66  62
1720775792,385:    182  66  62
1720775792,385:    269  66  62
1720775792,385:    310  66  62
1720775792,385:    233  66  62
1720775792,385:    128  66  62
1720775792,385:    119  66  62
1720775792,385:    197  66  62
1720775792,385:    238  66  62
1720775792,385:    169  66  62
1720775792,385:     67  66  62
1720775792,385:     60  66  62
1720775792,385:    149  66  62
1720775792,385:    212  66  62
1720775792,385:    167  66  62
1720775792,385:     78  66  62
1720775792,385:     69  66  62
1720775792,385:    154  66  62
1720775792,385:    214  66  62
1720775792,385:    158  66  62
1720775792,385:     47  66  62
1720775792,417:     16  66  62
1720775792,417:     98  66  62
1720775792,417:    177  66  62
1720775792,417:    143  66  62
1720775792,417:     36  66  62
1720775792,417:    -10  66  62
1720775792,417:     60  66  62
1720775792,449:    143  66  62
1720775792,449:    123  66  62
1720775792,449:     19  66  62
1720775792,449:    -34  66  62
1720775792,449:     28  66  62
1720775792,449:    119  66  62
1720775792,449:    115  66  62
1720775792,449:     20  66  62
1720775792,449:    -38  66  62
1720775792,449:     13  66  62
1720775792,449:     93  66  62
1720775792,449:     80  66  62
1720775792,449:    -27  66  62
1720775792,449:    -98  66  62
1720775792,449:    -45  66  62
1720775792,449:     55  66  62
1720775792,449:     67  66  62
1720775792,449:    -28  66  62
1720775792,449:   -104  66  62
1720775792,449:    -59  66  62
1720775792,449:     43  66  62
1720775792,449:     61  66  62
1720775792,449:    -41  66  62
1720775792,480:   -140  66  62
1720775792,480:   -119  66  62
1720775792,480:    -23  66  62
1720775792,480:      8  66  62
1720775792,480:    -78  66  62
1720775792,480:   -172  66  62
1720775792,480:   -156  66  62
1720775792,480:    -58  66  62
1720775792,480:    -14  66  62
1720775792,480:    -85  66  62
1720775792,480:   -177  66  62
1720775792,480:   -168  66  62
1720775792,480:    -77  66  62
1720775792,480:    -33  66  62
1720775792,480:   -102  66  62
1720775792,511:   -199  66  62
1720775792,511:   -199  66  62
1720775792,511:   -112  66  62
1720775792,511:    -67  66  62
1720775792,511:   -139  66  62
1720775792,511:   -243  66  62
1720775792,511:   -246  66  62
1720775792,511:   -145  66  62
1720775792,511:    -75  66  62
1720775792,511:   -129  66  62
1720775792,511:   -237  66  62
1720775792,511:   -254  66  62
1720775792,511:   -159  66  62
1720775792,511:    -80  66  62
1720775792,511:   -125  66  62
1720775792,541:   -241  66  62
1720775792,541:   -279  66  62
1720775792,541:   -197  66  62
1720775792,541:   -109  66  62
1720775792,541:   -134  66  62
1720775792,541:   -239  66  62
1720775792,541:   -282  66  62
1720775792,541:   -209  66  62
1720775792,541:   -124  66  62
1720775792,541:   -149  66  62
1720775792,541:   -264  66  62
1720775792,541:   -323  66  62
1720775792,541:   -258  66  62
1720775792,541:   -161  66  62
1720775792,541:   -166  66  62
1720775792,572:   -270  66  62
1720775792,572:   -338  66  62
1720775792,572:   -286  66  62
1720775792,572:   -193  66  62
1720775792,572:   -193  66  62
1720775792,572:   -295  66  62
1720775792,572:   -373  66  62
1720775792,572:   -330  66  62
1720775792,572:   -234  66  62
1720775792,572:   -219  66  62
1720775792,572:   -310  66  62
1720775792,572:   -386  66  62
1720775792,572:   -347  66  62
1720775792,572:   -252  66  62
1720775792,572:   -238  66  62
1720775792,602:   -337  66  62
1720775792,602:   -429  66  62
1720775792,602:   -398  66  62
1720775792,602:   -292  66  62
1720775792,602:   -258  66  62
1720775792,602:   -345  66  62
1720775792,602:   -442  66  62
1720775792,602:   -419  66  62
1720775792,602:   -309  66  62
1720775792,602:   -262  66  62
1720775792,602:   -347  66  62
1720775792,602:   -460  66  62
1720775792,602:   -459  66  62
1720775792,602:   -354  66  62
1720775792,602:   -290  66  62
1720775792,634:   -353  66  62
1720775792,634:   -461  66  62
1720775792,634:   -471  66  62
1720775792,634:   -378  66  62
1720775792,634:   -313  66  62
1720775792,634:   -373  66  62
1720775792,634:   -488  66  62
1720775792,634:   -511  66  62
1720775792,634:   -421  66  62
1720775792,634:   -347  66  62
1720775792,634:   -393  66  62
1720775792,634:   -501  66  62
1720775792,634:   -526  66  62
1720775792,634:   -434  66  62
1720775792,634:   -350  66  62
1720775792,665:   -393  66  62
1720775792,665:   -518  66  62
1720775792,665:   -569  66  62
1720775792,665:   -488  66  62
1720775792,665:   -388  66  62
1720775792,665:   -401  66  62
1720775792,665:   -508  66  62
1720775792,665:   -564  66  62
1720775792,665:   -498  66  62
1720775792,665:   -405  66  62
1720775792,665:   -416  66  62
1720775792,665:   -525  66  62
1720775792,665:   -592  66  62
1720775792,665:   -537  66  62
1720775792,665:   -443  66  62
1720775792,697:   -446  66  62
1720775792,697:   -549  66  62
1720775792,697:   -620  66  62
1720775792,697:   -568  66  62
1720775792,697:   -469  66  62
1720775792,697:   -465  66  62
1720775792,697:   -571  66  62
1720775792,697:   -657  66  62
1720775792,697:   -615  66  62
1720775792,697:   -508  66  62
1720775792,697:   -484  66  62
1720775792,697:   -580  66  62
1720775792,697:   -677  66  62
1720775792,697:   -657  66  62
1720775792,697:   -561  66  62
1720775792,728:   -531  66  62
1720775792,728:   -618  66  62
1720775792,728:   -712  66  62
1720775792,728:   -690  66  62
1720775792,728:   -582  66  62
1720775792,728:   -526  66  62
1720775792,728:   -590  66  62
1720775792,728:   -678  66  62
1720775792,728:   -665  66  62
1720775792,728:   -570  66  62
1720775792,728:   -525  66  62
1720775792,728:   -601  66  62
1720775792,728:   -706  66  62
1720775792,728:   -706  66  62
1720775792,728:   -604  66  62
1720775792,728:   -537  66  62
1720775792,728:   -596  66  62
1720775792,728:   -704  66  62
1720775792,728:   -722  66  62
1720775792,728:   -633  66  62
1720775792,728:   -562  66  62
1720775792,728:   -610  66  62
1720775792,758:   -719  66  62
1720775792,758:   -751  66  62
1720775792,758:   -670  66  62
1720775792,758:   -591  66  62
1720775792,758:   -619  66  62
1720775792,758:   -717  66  62
1720775792,758:   -752  66  62
1720775792,758:   -681  66  62
1720775792,758:   -609  66  62
1720775792,758:   -646  66  62
1720775792,758:   -760  66  62
1720775792,758:   -812  66  62
1720775792,758:   -743  66  62
1720775792,758:   -656  66  62
1720775792,758:   -675  66  62
1720775792,789:   -785  66  62
1720775792,789:   -850  66  62
1720775792,789:   -792  66  62
1720775792,789:   -701  66  62
1720775792,789:   -709  66  62
1720775792,789:   -820  66  62
1720775792,789:   -896  66  62
1720775792,789:   -841  66  62
1720775792,820:   -731  66  62
1720775792,820:   -706  66  62
1720775792,820:   -795  66  62
1720775792,820:   -872  66  62
1720775792,820:   -835  66  62
1720775792,820:   -736  66  62
1720775792,820:   -715  66  62
1720775792,820:   -808  66  62
1720775792,820:   -902  66  62
1720775792,820:   -884  66  62
1720775792,820:   -790  66  62
1720775792,820:   -755  66  62
1720775792,820:   -828  66  62
1720775792,820:   -909  66  62
1720775792,820:   -884  66  62
1720775792,820:   -787  66  62
1720775792,820:   -750  66  62
1720775792,820:   -830  66  62
1720775792,820:   -923  66  62
1720775792,820:   -903  66  62
1720775792,820:   -790  66  62
1720775792,820:   -729  66  62
1720775792,849:   -798  66  62
1720775792,849:   -905  66  62
1720775792,849:   -909  66  62
1720775792,849:   -808  66  62
1720775792,849:   -741  66  62
1720775792,849:   -806  66  62
1720775792,849:   -925  66  62
1720775792,849:   -945  66  62
1720775792,849:   -842  66  62
1720775792,849:   -744  66  62
1720775792,849:   -765  66  62
1720775792,849:   -857  66  62
1720775792,849:   -876  66  62
1720775792,849:   -784  66  62
1720775792,849:   -699  66  62
1720775792,881:   -732  66  62
1720775792,881:   -845  66  62
1720775792,881:   -894  66  62
1720775792,881:   -829  66  62
1720775792,881:   -752  66  62
1720775792,881:   -783  66  62
1720775792,881:   -892  66  62
1720775792,881:   -945  66  62
1720775792,881:   -881  66  62
1720775792,881:   -798  66  62
1720775792,881:   -816  66  62
1720775792,881:   -919  66  62
1720775792,881:   -978  66  62
1720775792,881:   -925  66  62
1720775792,881:   -846  66  62
1720775792,913:   -859  66  62
1720775792,913:   -957  66  62
1720775792,913:  -1011  66  62
1720775792,913:   -951  66  62
1720775792,913:   -864  66  62
1720775792,913:   -877  66  62
1720775792,913:   -985  66  62
1720775792,913:  -1055  66  62
1720775792,913:   -998  66  62
1720775792,913:   -895  66  62
1720775792,913:   -889  66  62
1720775792,913:   -992  66  62
1720775792,913:  -1065  66  62
1720775792,913:   -995  66  62
1720775792,913:   -849  66  62
1720775792,945:   -784  66  62
1720775792,945:   -836  66  62
1720775792,945:   -874  66  62
1720775792,945:   -794  66  62
1720775792,945:   -699  66  62
1720775792,945:   -804  66  62
1720775792,945:  -1175  66  62
1720775792,945:  -1648  66  62
1720775792,945:  -2030  66  62
1720775792,945:  -2320  66  62
1720775792,945:  -2634  66  62
1720775792,945:  -2959  66  62
1720775792,945:  -3062  66  62
1720775792,945:  -2709  66  62
1720775792,945:  -1909  66  62
1720775792,976:   -845  66  62
1720775792,976:    411  66  62
1720775792,976:   1986  66  62
1720775792,976:   3970  66  62
1720775792,976:   6159  66  62
1720775792,976:   8181  66  62
1720775792,976:   9863  66  62
1720775792,976:  11359  66  62
1720775792,976:  12853  66  62
1720775792,976:  14213  66  62
1720775792,976:  15062  66  62
1720775792,976:  15187  66  62
1720775792,976:  14736  66  62
1720775792,976:  13939  66  62
1720775792,976:  12732  66  62
1720775793,007:  10830  67  64
1720775793,007:   8198  67  64
1720775793,007:   5309  67  64
1720775793,007:   2797  67  64
1720775793,007:    892  67  64
1720775793,007:   -689  67  64
1720775793,007:  -2256  67  64
1720775793,007:  -3682  67  64
1720775793,007:  -4525  67  64
1720775793,007:  -4559  67  64
1720775793,007:  -4077  67  64
1720775793,007:  -3610  67  64
1720775793,007:  -3451  67  64
1720775793,007:  -3512  67  64
1720775793,007:  -3606  67  64
1720775793,038:  -3715  67  64
1720775793,038:  -3933  67  64
1720775793,038:  -4257  67  64
1720775793,038:  -4533  67  64
1720775793,038:  -4653  67  64
1720775793,038:  -4674  67  64
1720775793,038:  -4710  67  64
1720775793,038:  -4745  67  64
1720775793,038:  -4639  67  64
1720775793,038:  -4337  67  64
1720775793,038:  -3987  67  64
1720775793,038:  -3804  67  64
1720775793,038:  -3846  67  64
1720775793,038:  -3969  67  64
1720775793,038:  -4007  67  64
1720775793,038:  -3952  67  64
1720775793,038:  -3898  67  64
1720775793,038:  -3871  67  64
1720775793,038:  -3774  67  64
1720775793,038:  -3537  67  64
1720775793,038:  -3255  67  64
1720775793,038:  -3109  67  64
1720775793,038:  -3160  67  64
1720775793,070:  -3273  67  64
1720775793,070:  -3273  67  64
1720775793,070:  -3146  67  64
1720775793,070:  -3023  67  64
1720775793,070:  -2987  67  64
1720775793,070:  -2971  67  64
1720775793,070:  -2861  67  64
1720775793,070:  -2676  67  64
1720775793,070:  -2554  67  64
1720775793,070:  -2571  67  64
1720775793,070:  -2639  67  64
1720775793,070:  -2610  67  64
1720775793,070:  -2471  67  64
1720775793,070:  -2354  67  64
1720775793,070:  -2357  67  64
1720775793,100:  -2417  67  64
1720775793,100:  -2390  67  64
1720775793,100:  -2251  67  64
1720775793,100:  -2122  67  64
1720775793,100:  -2109  67  64
1720775793,100:  -2169  67  64
1720775793,100:  -2164  67  64
1720775793,100:  -2051  67  64
1720775793,100:  -1932  67  64
1720775793,100:  -1911  67  64
1720775793,100:  -1953  67  64
1720775793,100:  -1936  67  64
1720775793,100:  -1825  67  64
1720775793,100:  -1727  67  64
1720775793,100:  -1742  67  64
1720775793,132:  -1826  67  64
1720775793,132:  -1837  67  64
1720775793,132:  -1720  67  64
1720775793,132:  -1588  67  64
1720775793,132:  -1572  67  64
1720775793,132:  -1650  67  64
1720775793,132:  -1674  67  64
1720775793,132:  -1562  67  64
1720775793,132:  -1409  67  64
1720775793,132:  -1359  67  64
1720775793,132:  -1422  67  64
1720775793,132:  -1466  67  64
1720775793,132:  -1396  67  64
1720775793,132:  -1281  67  64
1720775793,132:  -1252  67  64
1720775793,163:  -1327  67  64
1720775793,163:  -1377  67  64
1720775793,163:  -1306  67  64
1720775793,163:  -1176  67  64
1720775793,163:  -1125  67  64
1720775793,163:  -1184  67  64
1720775793,163:  -1231  67  64
1720775793,163:  -1161  67  64
1720775793,163:  -1028  67  64
1720775793,163:   -973  67  64
1720775793,163:  -1041  67  64
1720775793,163:  -1112  67  64
1720775793,163:  -1064  67  64
1720775793,163:   -931  67  64
1720775793,163:   -858  67  64
1720775793,195:   -905  67  64
1720775793,195:   -972  67  64
1720775793,195:   -930  67  64
1720775793,195:   -800  67  64
1720775793,195:   -722  67  64
1720775793,195:   -765  67  64
1720775793,195:   -838  67  64
1720775793,195:   -807  67  64
1720775793,195:   -679  67  64
1720775793,195:   -594  67  64
1720775793,195:   -631  67  64
1720775793,195:   -706  67  64
1720775793,195:   -683  67  64
1720775793,195:   -561  67  64
1720775793,195:   -476  67  64
1720775793,195:   -514  67  64
1720775793,195:   -597  67  64
1720775793,195:   -577  67  64
1720775793,195:   -444  67  64
1720775793,195:   -333  67  64
1720775793,195:   -345  67  64
1720775793,195:   -416  67  64
1720775793,226:   -404  67  64
1720775793,226:   -281  67  64
1720775793,226:   -170  67  64
1720775793,226:   -180  67  64
1720775793,226:   -261  67  64
1720775793,226:   -266  67  64
1720775793,226:   -152  67  64
1720775793,226:    -34  67  64
1720775793,256:    -36  67  64
1720775793,256:   -127  67  64
1720775793,256:   -164  67  64
1720775793,256:    -82  67  64
1720775793,256:     19  67  64
1720775793,256:      4  67  64
1720775793,256:   -121  67  64
1720775793,256:   -213  67  64
1720775793,256:   -171  67  64
1720775793,256:    -71  67  64
1720775793,256:    -61  67  64
1720775793,256:   -169  67  64
1720775793,256:   -274  67  64
1720775793,256:   -261  67  64
1720775793,256:   -178  67  64
1720775793,288:   -163  67  64
1720775793,288:   -264  67  64
1720775793,288:   -374  67  64
1720775793,288:   -376  67  64
1720775793,288:   -300  67  64
1720775793,288:   -271  67  64
1720775793,288:   -340  67  64
1720775793,288:   -414  67  64
1720775793,288:   -389  67  64
1720775793,288:   -300  67  64
1720775793,288:   -276  67  64
1720775793,288:   -360  67  64
1720775793,288:   -447  67  64
1720775793,288:   -419  67  64
1720775793,288:   -312  67  64
1720775793,320:   -263  67  64
1720775793,320:   -333  67  64
1720775793,320:   -421  67  64
1720775793,320:   -398  67  64
1720775793,320:   -285  67  64
1720775793,320:   -221  67  64
1720775793,320:   -280  67  64
1720775793,320:   -377  67  64
1720775793,320:   -375  67  64
1720775793,320:   -277  67  64
1720775793,320:   -215  67  64
1720775793,320:   -271  67  64
1720775793,320:   -368  67  64
1720775793,320:   -371  67  64
1720775793,320:   -274  67  64
1720775793,320:   -207  67  64
1720775793,320:   -266  67  64
1720775793,320:   -380  67  64
1720775793,320:   -401  67  64
1720775793,320:   -300  67  64
1720775793,320:   -208  67  64
1720775793,320:   -241  67  64
1720775793,352:   -350  67  64
1720775793,352:   -384  67  64
1720775793,352:   -290  67  64
1720775793,352:   -188  67  64
1720775793,352:   -209  67  64
1720775793,352:   -322  67  64
1720775793,352:   -373  67  64
1720775793,352:   -291  67  64
1720775793,352:   -180  67  64
1720775793,352:   -180  67  64
1720775793,352:   -288  67  64
1720775793,352:   -357  67  64
1720775793,352:   -300  67  64
1720775793,383:   -203  67  64
1720775793,383:   -207  67  64
1720775793,383:   -319  67  64
1720775793,383:   -401  67  64
1720775793,383:   -351  67  64
1720775793,383:   -243  67  64
1720775793,383:   -221  67  64
1720775793,383:   -315  67  64
1720775793,383:   -401  67  64
1720775793,383:   -368  67  64
1720775793,383:   -269  67  64
1720775793,383:   -244  67  64
1720775793,383:   -334  67  64
1720775793,383:   -424  67  64
1720775793,383:   -395  67  64
1720775793,415:   -287  67  64
1720775793,415:   -238  67  64
1720775793,415:   -301  67  64
1720775793,415:   -377  67  64
1720775793,415:   -347  67  64
1720775793,415:   -243  67  64
1720775793,415:   -205  67  64
1720775793,447:   -291  67  64
1720775793,447:   -395  67  64
1720775793,447:   -380  67  64
1720775793,447:   -265  67  64
1720775793,447:   -200  67  64
1720775793,447:   -272  67  64
1720775793,447:   -386  67  64
1720775793,447:   -390  67  64
1720775793,447:   -280  67  64
1720775793,447:   -202  67  64
1720775793,447:   -257  67  64
1720775793,447:   -370  67  64
1720775793,447:   -387  67  64
1720775793,447:   -283  67  64
1720775793,447:   -196  67  64
1720775793,447:   -237  67  64
1720775793,447:   -344  67  64
1720775793,447:   -363  67  64
1720775793,447:   -262  67  64
1720775793,447:   -175  67  64
1720775793,447:   -225  67  64
1720775793,447:   -357  67  64
1720775793,447:   -408  67  64
1720775793,478:   -320  67  64
1720775793,478:   -220  67  64
1720775793,478:   -250  67  64
1720775793,478:   -382  67  64
1720775793,478:   -454  67  64
1720775793,478:   -390  67  64
1720775793,478:   -295  67  64
1720775793,478:   -309  67  64
1720775793,478:   -426  67  64
1720775793,478:   -503  67  64
1720775793,478:   -456  67  64
1720775793,478:   -374  67  64
1720775793,478:   -395  67  64
1720775793,478:   -521  67  64
1720775793,478:   -612  67  64
1720775793,478:   -574  67  64
1720775793,478:   -488  67  64
1720775793,478:   -490  67  64
1720775793,478:   -597  67  64
1720775793,478:   -672  67  64
1720775793,478:   -617  67  64
1720775793,478:   -502  67  64
1720775793,510:   -474  67  64
1720775793,510:   -567  67  64
1720775793,510:   -652  67  64
1720775793,510:   -614  67  64
1720775793,510:   -511  67  64
1720775793,510:   -493  67  64
1720775793,510:   -605  67  64
1720775793,510:   -717  67  64
1720775793,510:   -690  67  64
1720775793,510:   -562  67  64
1720775793,510:   -494  67  64
1720775793,510:   -560  67  64
1720775793,510:   -655  67  64
1720775793,510:   -636  67  64
1720775793,510:   -515  67  64
1720775793,541:   -444  67  64
1720775793,541:   -509  67  64
1720775793,541:   -618  67  64
1720775793,541:   -628  67  64
1720775793,541:   -530  67  64
1720775793,541:   -458  67  64
1720775793,541:   -500  67  64
1720775793,541:   -583  67  64
1720775793,541:   -576  67  64
1720775793,541:   -480  67  64
1720775793,541:   -429  67  64
1720775793,541:   -507  67  64
1720775793,541:   -632  67  64
1720775793,541:   -654  67  64
1720775793,541:   -556  67  64
1720775793,572:   -479  67  64
1720775793,572:   -538  67  64
1720775793,572:   -668  67  64
1720775793,572:   -707  67  64
1720775793,572:   -612  67  64
1720775793,572:   -520  67  64
1720775793,572:   -567  67  64
1720775793,572:   -712  67  64
1720775793,572:   -785  67  64
1720775793,572:   -713  67  64
1720775793,572:   -620  67  64
1720775793,572:   -657  67  64
1720775793,572:   -801  67  64
1720775793,572:   -882  67  64
1720775793,572:   -802  67  64
1720775793,572:   -673  67  64
1720775793,572:   -665  67  64
1720775793,572:   -791  67  64
1720775793,572:   -884  67  64
1720775793,572:   -822  67  64
1720775793,572:   -682  67  64
1720775793,572:   -635  67  64
1720775793,572:   -724  67  64
1720775793,604:   -819  67  64
1720775793,604:   -803  67  64
1720775793,604:   -718  67  64
1720775793,604:   -703  67  64
1720775793,604:   -800  67  64
1720775793,604:   -892  67  64
1720775793,604:   -871  67  64
1720775793,636:   -779  67  64
1720775793,636:   -757  67  64
1720775793,636:   -851  67  64
1720775793,636:   -950  67  64
1720775793,636:   -927  67  64
1720775793,636:   -811  67  64
1720775793,636:   -752  67  64
1720775793,636:   -828  67  64
1720775793,636:   -948  67  64
1720775793,636:   -970  67  64
1720775793,636:   -887  67  64
1720775793,636:   -830  67  64
1720775793,636:   -889  67  64
1720775793,636:  -1000  67  64
1720775793,636:  -1030  67  64
1720775793,668:   -960  67  64
1720775793,668:   -905  67  64
1720775793,668:   -953  67  64
1720775793,668:  -1042  67  64
1720775793,668:  -1037  67  64
1720775793,668:   -929  67  64
1720775793,668:   -844  67  64
1720775793,668:   -885  67  64
1720775793,668:   -986  67  64
1720775793,668:  -1003  67  64
1720775793,668:   -906  67  64
1720775793,668:   -819  67  64
1720775793,668:   -854  67  64
1720775793,668:   -962  67  64
1720775793,668:   -993  67  64
1720775793,698:   -900  67  64
1720775793,698:   -797  67  64
1720775793,698:   -806  67  64
1720775793,698:   -895  67  64
1720775793,698:   -928  67  64
1720775793,698:   -853  67  64
1720775793,698:   -769  67  64
1720775793,698:   -791  67  64
1720775793,698:   -885  67  64
1720775793,698:   -917  67  64
1720775793,698:   -829  67  64
1720775793,698:   -723  67  64
1720775793,698:   -727  67  64
1720775793,698:   -822  67  64
1720775793,698:   -872  67  64
1720775793,698:   -803  67  64
1720775793,698:   -711  67  64
1720775793,698:   -731  67  64
1720775793,698:   -853  67  64
1720775793,698:   -928  67  64
1720775793,698:   -855  67  64
1720775793,698:   -719  67  64
1720775793,698:   -679  67  64
1720775793,729:   -766  67  64
1720775793,729:   -852  67  64
1720775793,729:   -826  67  64
1720775793,729:   -740  67  64
1720775793,729:   -734  67  64
1720775793,729:   -841  67  64
1720775793,729:   -943  67  64
1720775793,729:   -922  67  64
1720775793,729:   -813  67  64
1720775793,729:   -746  67  64
1720775793,729:   -767  67  64
1720775793,729:   -776  67  64
1720775793,729:   -665  67  64
1720775793,729:   -472  67  64
1720775793,729:   -351  67  64
1720775793,761:   -413  67  64
1720775793,761:   -614  67  64
1720775793,761:   -845  67  64
1720775793,761:  -1080  67  64
1720775793,761:  -1396  67  64
1720775793,761:  -1838  67  64
1720775793,761:  -2300  67  64
1720775793,761:  -2576  67  64
1720775793,761:  -2530  67  64
1720775793,761:  -2173  67  64
1720775793,761:  -1571  67  64
1720775793,761:   -696  67  64
1720775793,761:    577  67  64
1720775793,761:   2305  67  64
1720775793,761:   4339  67  64
1720775793,792:   6399  67  64
1720775793,792:   8289  67  64
1720775793,792:  10030  67  64
1720775793,792:  11716  67  64
1720775793,792:  13293  67  64
1720775793,792:  14517  67  64
1720775793,792:  15164  67  64
1720775793,792:  15236  67  64
1720775793,792:  14894  67  64
1720775793,792:  14198  67  64
1720775793,792:  12995  67  64
1720775793,792:  11107  67  64
1720775793,792:   8624  67  64
1720775793,792:   5953  67  64
1720775793,792:   3530  67  64
1720775793,822:   1531  74  67
1720775793,822:   -140  74  67
1720775793,822:  -1601  74  67
1720775793,822:  -2807  74  67
1720775793,822:  -3594  74  67
1720775793,822:  -3853  74  67
1720775793,822:  -3665  74  67
1720775793,822:  -3252  74  67
1720775793,822:  -2878  74  67
1720775793,822:  -2740  74  67
1720775793,822:  -2883  74  67
1720775793,822:  -3194  74  67
1720775793,822:  -3484  74  67
1720775793,822:  -3651  74  67
1720775793,822:  -3753  74  67
1720775793,854:  -3902  74  67
1720775793,854:  -4100  74  67
1720775793,854:  -4211  74  67
1720775793,854:  -4121  74  67
1720775793,854:  -3882  74  67
1720775793,854:  -3653  74  67
1720775793,854:  -3519  74  67
1720775793,854:  -3427  74  67
1720775793,854:  -3314  74  67
1720775793,854:  -3230  74  67
1720775793,854:  -3270  74  67
1720775793,854:  -3407  74  67
1720775793,854:  -3468  74  67
1720775793,854:  -3317  74  67
1720775793,854:  -3025  74  67
1720775793,885:  -2789  74  67
1720775793,885:  -2713  74  67
1720775793,885:  -2714  74  67
1720775793,885:  -2655  74  67
1720775793,885:  -2539  74  67
1720775793,885:  -2484  74  67
1720775793,885:  -2540  74  67
1720775793,885:  -2596  74  67
1720775793,885:  -2511  74  67
1720775793,885:  -2301  74  67
1720775793,885:  -2123  74  67
1720775793,885:  -2086  74  67
1720775793,885:  -2125  74  67
1720775793,885:  -2095  74  67
1720775793,885:  -1973  74  67
1720775793,916:  -1873  74  67
1720775793,916:  -1880  74  67
1720775793,916:  -1927  74  67
1720775793,916:  -1876  74  67
1720775793,916:  -1710  74  67
1720775793,916:  -1559  74  67
1720775793,916:  -1538  74  67
1720775793,916:  -1597  74  67
1720775793,916:  -1587  74  67
1720775793,916:  -1458  74  67
1720775793,916:  -1324  74  67
1720775793,916:  -1305  74  67
1720775793,916:  -1368  74  67
1720775793,916:  -1368  74  67
1720775793,916:  -1245  74  67
1720775793,916:  -1106  74  67
1720775793,916:  -1081  74  67
1720775793,916:  -1146  74  67
1720775793,916:  -1153  74  67
1720775793,916:  -1027  74  67
1720775793,916:   -871  74  67
1720775793,916:   -829  74  67
1720775793,947:   -896  74  67
1720775793,947:   -926  74  67
1720775793,947:   -826  74  67
1720775793,947:   -686  74  67
1720775793,947:   -658  74  67
1720775793,947:   -751  74  67
1720775793,947:   -816  74  67
1720775793,947:   -741  74  67
1720775793,980:   -598  74  67
1720775793,980:   -545  74  67
1720775793,980:   -620  74  67
1720775793,980:   -687  74  67
1720775793,980:   -621  74  67
1720775793,980:   -475  74  67
1720775793,980:   -407  74  67
1720775793,980:   -475  74  67
1720775793,980:   -556  74  67
1720775793,980:   -511  74  67
1720775793,980:   -369  74  67
1720775793,980:   -285  74  67
1720775793,980:   -335  74  67
1720775793,980:   -414  74  67
1720775793,980:   -378  74  67
1720775793,980:   -241  74  67
1720775793,980:   -153  74  67
1720775793,980:   -200  74  67
1720775793,980:   -288  74  67
1720775793,980:   -263  74  67
1720775793,980:   -121  74  67
1720775793,980:    -11  74  67
1720775794,011:    -34  74  67
1720775794,011:   -114  74  67
1720775794,011:    -99  74  67
1720775794,011:     27  74  67
1720775794,011:    127  74  67
1720775794,011:     95  74  67
1720775794,011:     -3  74  67
1720775794,011:    -10  74  67
1720775794,011:    104  74  67
1720775794,011:    210  74  67
1720775794,011:    190  74  67
1720775794,011:    101  74  67
1720775794,011:     96  74  67
1720775794,011:    216  74  67
1720775794,011:    335  74  67
1720775794,043:    330  74  67
1720775794,043:    244  74  67
1720775794,043:    238  74  67
1720775794,043:    372  74  67
1720775794,043:    531  74  67
1720775794,043:    573  74  67
1720775794,043:    511  74  67
1720775794,043:    495  74  67
1720775794,043:    603  74  67
1720775794,043:    736  74  67
1720775794,043:    752  74  67
1720775794,043:    652  74  67
1720775794,043:    584  74  67
1720775794,043:    640  74  67
1720775794,043:    736  74  67
1720775794,043:    730  74  67
1720775794,043:    616  74  67
1720775794,043:    544  74  67
1720775794,043:    618  74  67
1720775794,043:    754  74  67
1720775794,043:    782  74  67
1720775794,043:    671  74  67
1720775794,043:    570  74  67
1720775794,074:    611  74  67
1720775794,074:    736  74  67
1720775794,074:    773  74  67
1720775794,074:    665  74  67
1720775794,074:    545  74  67
1720775794,074:    557  74  67
1720775794,074:    667  74  67
1720775794,105:    710  74  67
1720775794,105:    616  74  67
1720775794,105:    504  74  67
1720775794,105:    523  74  67
1720775794,105:    651  74  67
1720775794,105:    720  74  67
1720775794,105:    640  74  67
1720775794,105:    513  74  67
1720775794,105:    504  74  67
1720775794,105:    612  74  67
1720775794,105:    682  74  67
1720775794,105:    610  74  67
1720775794,105:    480  74  67
1720775794,105:    460  74  67
1720775794,105:    570  74  67
1720775794,136:    662  74  67
1720775794,136:    620  74  67
1720775794,136:    515  74  67
1720775794,136:    505  74  67
1720775794,136:    620  74  67
1720775794,136:    713  74  67
1720775794,136:    662  74  67
1720775794,136:    528  74  67
1720775794,136:    485  74  67
1720775794,136:    585  74  67
1720775794,136:    692  74  67
1720775794,136:    663  74  67
1720775794,136:    541  74  67
1720775794,136:    493  74  67
1720775794,136:    588  74  67
1720775794,136:    700  74  67
1720775794,136:    678  74  67
1720775794,136:    547  74  67
1720775794,136:    474  74  67
1720775794,136:    550  74  67
1720775794,136:    665  74  67
1720775794,136:    660  74  67
1720775794,136:    533  74  67
1720775794,167:    444  74  67
1720775794,167:    500  74  67
1720775794,167:    612  74  67
1720775794,167:    616  74  67
1720775794,167:    487  74  67
1720775794,167:    379  74  67
1720775794,167:    418  74  67
1720775794,167:    535  74  67
1720775794,167:    564  74  67
1720775794,167:    456  74  67
1720775794,167:    347  74  67
1720775794,167:    378  74  67
1720775794,167:    499  74  67
1720775794,167:    541  74  67
1720775794,167:    438  74  67
1720775794,199:    315  74  67
1720775794,199:    323  74  67
1720775794,199:    438  74  67
1720775794,199:    495  74  67
1720775794,199:    407  74  67
1720775794,199:    283  74  67
1720775794,199:    278  74  67
1720775794,230:    386  74  67
1720775794,230:    448  74  67
1720775794,230:    369  74  67
1720775794,230:    242  74  67
1720775794,230:    232  74  67
1720775794,230:    347  74  67
1720775794,230:    430  74  67
1720775794,230:    363  74  67
1720775794,230:    222  74  67
1720775794,230:    178  74  67
1720775794,230:    265  74  67
1720775794,230:    342  74  67
1720775794,230:    281  74  67
1720775794,230:    138  74  67
1720775794,230:     83  74  67
1720775794,230:    170  74  67
1720775794,230:    272  74  67
1720775794,230:    253  74  67
1720775794,230:    146  74  67
1720775794,230:    103  74  67
1720775794,230:    183  74  67
1720775794,230:    273  74  67
1720775794,230:    244  74  67
1720775794,262:    129  74  67
1720775794,262:     79  74  67
1720775794,262:    159  74  67
1720775794,262:    255  74  67
1720775794,262:    229  74  67
1720775794,262:    105  74  67
1720775794,262:     38  74  67
1720775794,262:    110  74  67
1720775794,262:    219  74  67
1720775794,262:    217  74  67
1720775794,262:    105  74  67
1720775794,262:     33  74  67
1720775794,262:     97  74  67
1720775794,262:    216  74  67
1720775794,262:    238  74  67
1720775794,294:    145  74  67
1720775794,294:     69  74  67
1720775794,294:    109  74  67
1720775794,294:    198  74  67
1720775794,294:    197  74  67
1720775794,294:     82  74  67
1720775794,294:    -11  74  67
1720775794,294:     31  74  67
1720775794,294:    144  74  67
1720775794,294:    174  74  67
1720775794,294:     76  74  67
1720775794,294:    -23  74  67
1720775794,294:      8  74  67
1720775794,294:    125  74  67
1720775794,294:    172  74  67
1720775794,326:     84  74  67
1720775794,326:    -21  74  67
1720775794,326:     -2  74  67
1720775794,326:    113  74  67
1720775794,326:    167  74  67
1720775794,326:     82  74  67
1720775794,326:    -32  74  67
1720775794,326:    -24  74  67
1720775794,326:     89  74  67
1720775794,326:    152  74  67
1720775794,326:     70  74  67
1720775794,326:    -56  74  67
1720775794,326:    -63  74  67
1720775794,326:     57  74  67
1720775794,326:    147  74  67
1720775794,326:     98  74  67
1720775794,326:    -14  74  67
1720775794,326:    -33  74  67
1720775794,326:     62  74  67
1720775794,326:    132  74  67
1720775794,326:     64  74  67
1720775794,358:    -68  74  67
1720775794,358:   -104  74  67
1720775794,358:    -11  74  67
1720775794,358:     77  74  67
1720775794,358:     33  74  67
1720775794,358:    -86  74  67
1720775794,389:   -120  74  67
1720775794,389:    -22  74  67
1720775794,389:     77  74  67
1720775794,389:     44  74  67
1720775794,389:    -84  74  67
1720775794,389:   -139  74  67
1720775794,389:    -51  74  67
1720775794,389:     64  74  67
1720775794,389:     61  74  67
1720775794,389:    -48  74  67
1720775794,389:   -109  74  67
1720775794,389:    -36  74  67
1720775794,389:     75  74  67
1720775794,389:     81  74  67
1720775794,389:    -23  74  67
1720775794,389:   -102  74  67
1720775794,389:    -61  74  67
1720775794,389:     25  74  67
1720775794,389:     28  74  67
1720775794,389:    -62  74  67
1720775794,389:   -126  74  67
1720775794,389:    -88  74  67
1720775794,421:    -16  74  67
1720775794,421:    -31  74  67
1720775794,421:   -137  74  67
1720775794,421:   -209  74  67
1720775794,421:   -157  74  67
1720775794,421:    -46  74  67
1720775794,421:    -21  74  67
1720775794,421:   -108  74  67
1720775794,421:   -196  74  67
1720775794,421:   -176  74  67
1720775794,421:    -91  74  67
1720775794,421:    -80  74  67
1720775794,421:   -180  74  67
1720775794,421:   -264  74  67
1720775794,421:   -207  74  67
1720775794,452:    -59  74  67
1720775794,452:      6  74  67
1720775794,452:    -81  74  67
1720775794,452:   -182  74  67
1720775794,452:   -114  74  67
1720775794,452:     97  74  67
1720775794,452:    237  74  67
1720775794,452:    175  74  67
1720775794,452:     27  74  67
1720775794,452:      7  74  67
1720775794,452:    149  74  67
1720775794,452:    270  74  67
1720775794,452:    226  74  67
1720775794,452:     98  74  67
1720775794,452:     79  74  67
1720775794,484:    214  74  67
1720775794,484:    338  74  67
1720775794,484:    312  74  67
1720775794,484:    209  74  67
1720775794,484:    209  74  67
1720775794,484:    351  74  67
1720775794,484:    482  74  67
1720775794,484:    462  74  67
1720775794,484:    342  74  67
1720775794,484:    288  74  67
1720775794,484:    358  74  67
1720775794,484:    436  74  67
1720775794,484:    403  74  67
1720775794,484:    306  74  67
1720775794,484:    281  74  67
1720775794,514:    378  74  67
1720775794,514:    487  74  67
1720775794,514:    502  74  67
1720775794,514:    463  74  67
1720775794,514:    505  74  67
1720775794,514:    669  74  67
1720775794,514:    851  74  67
1720775794,514:    919  74  67
1720775794,514:    867  74  67
1720775794,514:    777  74  67
1720775794,514:    682  74  67
1720775794,514:    507  74  67
1720775794,514:    173  74  67
1720775794,514:   -275  74  67
1720775794,514:   -702  74  67
1720775794,514:   -997  74  67
1720775794,514:  -1142  74  67
1720775794,514:  -1137  74  67
1720775794,514:   -912  74  67
1720775794,514:   -349  74  67
1720775794,514:    620  74  67
1720775794,514:   1955  74  67
1720775794,514:   3559  74  67
1720775794,546:   5340  74  67
1720775794,546:   7221  74  67
1720775794,546:   9109  74  67
1720775794,546:  10897  74  67
1720775794,546:  12501  74  67
1720775794,546:  13862  74  67
1720775794,546:  14916  74  67
1720775794,578:  15574  79  72
1720775794,578:  15745  79  72
1720775794,578:  15380  79  72
1720775794,578:  14471  79  72
1720775794,578:  13021  79  72
1720775794,578:  11059  79  72
1720775794,578:   8718  79  72
1720775794,578:   6270  79  72
1720775794,578:   4025  79  72
1720775794,578:   2159  79  72
1720775794,578:    649  79  72
1720775794,578:   -628  79  72
1720775794,578:  -1690  79  72
1720775794,578:  -2385  79  72
1720775794,578:  -2577  79  72
1720775794,609:  -2350  79  72
1720775794,609:  -2037  79  72
1720775794,609:  -1964  79  72
1720775794,609:  -2196  79  72
1720775794,609:  -2539  79  72
1720775794,609:  -2789  79  72
1720775794,609:  -2943  79  72
1720775794,609:  -3141  79  72
1720775794,609:  -3435  79  72
1720775794,609:  -3698  79  72
1720775794,609:  -3771  79  72
1720775794,609:  -3657  79  72
1720775794,609:  -3513  79  72
1720775794,609:  -3449  79  72
1720775794,609:  -3434  79  72
1720775794,609:  -3369  79  72
1720775794,609:  -3266  79  72
1720775794,609:  -3236  79  72
1720775794,609:  -3329  79  72
1720775794,609:  -3453  79  72
1720775794,609:  -3464  79  72
1720775794,609:  -3346  79  72
1720775794,609:  -3194  79  72
1720775794,640:  -3063  79  72
1720775794,640:  -2889  79  72
1720775794,640:  -2600  79  72
1720775794,640:  -2267  79  72
1720775794,640:  -2070  79  72
1720775794,640:  -2086  79  72
1720775794,640:  -2178  79  72
1720775794,640:  -2127  79  72
1720775794,640:  -1878  79  72
1720775794,640:  -1604  79  72
1720775794,640:  -1493  79  72
1720775794,640:  -1531  79  72
1720775794,640:  -1541  79  72
1720775794,640:  -1395  79  72
1720775794,640:  -1178  79  72
1720775794,671:  -1061  79  72
1720775794,671:  -1080  79  72
1720775794,671:  -1097  79  72
1720775794,671:   -982  79  72
1720775794,671:   -785  79  72
1720775794,671:   -665  79  72
1720775794,671:   -688  79  72
1720775794,671:   -751  79  72
1720775794,671:   -719  79  72
1720775794,671:   -600  79  72
1720775794,671:   -522  79  72
1720775794,671:   -543  79  72
1720775794,671:   -586  79  72
1720775794,671:   -533  79  72
1720775794,671:   -397  79  72
1720775794,702:   -302  79  72
1720775794,702:   -317  79  72
1720775794,702:   -365  79  72
1720775794,702:   -319  79  72
1720775794,702:   -178  79  72
1720775794,702:    -74  79  72
1720775794,702:   -105  79  72
1720775794,702:   -211  79  72
1720775794,702:   -248  79  72
1720775794,702:   -173  79  72
1720775794,702:    -93  79  72
1720775794,702:   -112  79  72
1720775794,702:   -197  79  72
1720775794,702:   -223  79  72
1720775794,702:   -148  79  72
1720775794,734:    -71  79  72
1720775794,734:    -97  79  72
1720775794,734:   -194  79  72
1720775794,734:   -230  79  72
1720775794,734:   -155  79  72
1720775794,734:    -64  79  72
1720775794,734:    -67  79  72
1720775794,734:   -144  79  72
1720775794,734:   -176  79  72
1720775794,734:   -105  79  72
1720775794,734:    -12  79  72
1720775794,734:     -8  79  72
1720775794,734:    -84  79  72
1720775794,734:   -123  79  72
1720775794,734:    -68  79  72
1720775794,765:      2  79  72
1720775794,765:    -12  79  72
1720775794,765:    -94  79  72
1720775794,765:   -120  79  72
1720775794,765:    -28  79  72
1720775794,765:    103  79  72
1720775794,765:    159  79  72
1720775794,765:    139  79  72
1720775794,765:    151  79  72
1720775794,765:    248  79  72
1720775794,765:    330  79  72
1720775794,765:    273  79  72
1720775794,765:    100  79  72
1720775794,765:    -26  79  72
1720775794,765:     -6  79  72
1720775794,796:     66  79  72
1720775794,796:     30  79  72
1720775794,796:   -119  79  72
1720775794,796:   -207  79  72
1720775794,796:    -96  79  72
1720775794,796:    128  79  72
1720775794,796:    262  79  72
1720775794,796:    239  79  72
1720775794,796:    204  79  72
1720775794,796:    320  79  72
1720775794,796:    544  79  72
1720775794,796:    688  79  72
1720775794,796:    660  79  72
1720775794,796:    578  79  72
1720775794,796:    612  79  72
1720775794,827:    761  79  72
1720775794,827:    866  79  72
1720775794,827:    830  79  72
1720775794,827:    745  79  72
1720775794,827:    765  79  72
1720775794,827:    892  79  72
1720775794,827:    988  79  72
1720775794,827:    962  79  72
1720775794,827:    881  79  72
1720775794,827:    881  79  72
1720775794,827:    965  79  72
1720775794,827:    999  79  72
1720775794,827:    896  79  72
1720775794,827:    731  79  72
1720775794,827:    657  79  72
1720775794,827:    692  79  72
1720775794,827:    694  79  72
1720775794,827:    551  79  72
1720775794,827:    326  79  72
1720775794,827:    185  79  72
1720775794,827:    196  79  72
1720775794,827:    246  79  72
1720775794,859:    202  79  72
1720775794,859:     80  79  72
1720775794,859:     17  79  72
1720775794,859:     83  79  72
1720775794,859:    182  79  72
1720775794,859:    184  79  72
1720775794,859:     87  79  72
1720775794,859:     17  79  72
1720775794,859:     55  79  72
1720775794,859:    133  79  72
1720775794,859:    133  79  72
1720775794,859:     43  79  72
1720775794,859:    -24  79  72
1720775794,859:     17  79  72
1720775794,859:    106  79  72
1720775794,891:    129  79  72
1720775794,891:     61  79  72
1720775794,891:     -1  79  72
1720775794,891:     28  79  72
1720775794,891:    103  79  72
1720775794,891:    115  79  72
1720775794,891:     33  79  72
1720775794,891:    -47  79  72
1720775794,891:    -34  79  72
1720775794,891:     39  79  72
1720775794,891:     72  79  72
1720775794,891:     24  79  72
1720775794,891:    -33  79  72
1720775794,891:    -32  79  72
1720775794,891:     -9  79  72
1720775794,922:    -37  79  72
1720775794,922:   -128  79  72
1720775794,922:   -203  79  72
1720775794,922:   -205  79  72
1720775794,922:   -179  79  72
1720775794,922:   -202  79  72
1720775794,922:   -274  79  72
1720775794,922:   -310  79  72
1720775794,922:   -272  79  72
1720775794,922:   -236  79  72
1720775794,922:   -295  79  72
1720775794,922:   -420  79  72
1720775794,922:   -486  79  72
1720775794,922:   -420  79  72
1720775794,922:   -309  79  72
1720775794,953:   -298  79  72
1720775794,953:   -405  79  72
1720775794,953:   -493  79  72
1720775794,953:   -438  79  72
1720775794,953:   -289  79  72
1720775794,953:   -216  79  72
1720775794,953:   -297  79  72
1720775794,953:   -426  79  72
1720775794,953:   -427  79  72
1720775794,953:   -274  79  72
1720775794,953:   -125  79  72
1720775794,953:   -126  79  72
1720775794,953:   -236  79  72
1720775794,953:   -278  79  72
1720775794,953:   -162  79  72
1720775794,985:      1  79  72
1720775794,985:     43  79  72
1720775794,985:    -59  79  72
1720775794,985:   -149  79  72
1720775794,985:    -99  79  72
1720775794,985:     39  79  72
1720775794,985:    111  79  72
1720775794,985:     61  79  72
1720775794,985:     -1  79  72
1720775794,985:     45  79  72
1720775794,985:    159  79  72
1720775794,985:    213  79  72
1720775794,985:    158  79  72
1720775794,985:     96  79  72
1720775794,985:    129  79  72
1720775795,016:    218  79  72
1720775795,016:    239  79  72
1720775795,016:    149  79  72
1720775795,016:     50  79  72
1720775795,016:     54  79  72
1720775795,016:    132  79  72
1720775795,016:    155  79  72
1720775795,016:     72  79  72
1720775795,016:    -29  79  72
1720775795,016:    -45  79  72
1720775795,016:     -5  79  72
1720775795,016:    -29  79  72
1720775795,016:   -156  79  72
1720775795,016:   -278  79  72
1720775795,016:   -276  79  72
1720775795,016:   -182  79  72
1720775795,016:   -140  79  72
1720775795,016:   -221  79  72
1720775795,016:   -331  79  72
1720775795,016:   -333  79  72
1720775795,016:   -229  79  72
1720775795,016:   -154  79  72
1720775795,016:   -195  79  72
1720775795,048:   -278  79  72
1720775795,048:   -268  79  72
1720775795,048:   -156  79  72
1720775795,048:    -73  79  72
1720775795,048:   -110  79  72
1720775795,048:   -196  79  72
1720775795,048:   -184  79  72
1720775795,048:    -52  79  72
1720775795,048:     62  79  72
1720775795,048:     39  79  72
1720775795,048:    -68  79  72
1720775795,048:    -94  79  72
1720775795,048:     22  79  72
1720775795,048:    162  79  72
1720775795,048:    182  79  72
1720775795,080:     95  79  72
1720775795,080:     50  79  72
1720775795,080:    132  79  72
1720775795,080:    255  79  72
1720775795,080:    288  79  72
1720775795,080:    227  79  72
1720775795,080:    195  79  72
1720775795,080:    273  79  72
1720775795,080:    382  79  72
1720775795,080:    393  79  72
1720775795,080:    305  79  72
1720775795,080:    250  79  72
1720775795,080:    324  79  72
1720775795,080:    457  79  72
1720775795,080:    505  79  72
1720775795,112:    440  79  72
1720775795,112:    374  79  72
1720775795,112:    407  79  72
1720775795,112:    488  79  72
1720775795,112:    489  79  72
1720775795,112:    382  79  72
1720775795,112:    280  79  72
1720775795,112:    294  79  72
1720775795,112:    382  79  72
1720775795,112:    412  79  72
1720775795,112:    335  79  72
1720775795,112:    248  79  72
1720775795,112:    270  79  72
1720775795,112:    383  79  72
1720775795,112:    464  79  72
1720775795,144:    440  79  72
1720775795,144:    377  79  72
1720775795,144:    376  79  72
1720775795,144:    435  79  72
1720775795,144:    459  79  72
1720775795,144:    395  79  72
1720775795,144:    313  79  72
1720775795,144:    312  79  72
1720775795,144:    381  79  72
1720775795,144:    413  79  72
1720775795,144:    348  79  72
1720775795,144:    265  79  72
1720775795,144:    289  79  72
1720775795,144:    424  79  72
1720775795,144:    540  79  72
1720775795,174:    529  79  72
1720775795,174:    448  79  72
1720775795,174:    438  79  72
1720775795,174:    543  79  72
1720775795,174:    648  79  72
1720775795,174:    623  79  72
1720775795,174:    487  79  72
1720775795,174:    386  79  72
1720775795,174:    399  79  72
1720775795,174:    449  79  72
1720775795,174:    407  79  72
1720775795,174:    269  79  72
1720775795,174:    155  79  72
1720775795,174:    153  79  72
1720775795,174:    207  79  72
1720775795,204:    201  79  72
1720775795,204:    115  79  72
1720775795,204:     45  79  72
1720775795,204:     71  79  72
1720775795,204:    142  79  72
1720775795,204:    142  79  72
1720775795,204:     47  79  72
1720775795,204:    -41  79  72
1720775795,204:    -25  79  72
1720775795,204:     56  79  72
1720775795,204:     76  79  72
1720775795,204:    -16  79  72
1720775795,204:   -126  79  72
1720775795,204:   -131  79  72
1720775795,204:    -40  79  72
1720775795,236:     21  79  72
1720775795,236:    -23  79  72
1720775795,236:   -101  79  72
1720775795,236:    -84  79  72
1720775795,236:     47  79  72
1720775795,236:    192  79  72
1720775795,236:    250  79  72
1720775795,236:    235  79  72
1720775795,236:    195  79  72
1720775795,236:    116  79  72
1720775795,236:    -74  79  72
1720775795,236:   -392  79  72
1720775795,236:   -769  79  72
1720775795,236:  -1132  79  72
1720775795,236:  -1483  79  72
1720775795,267:  -1815  79  72
1720775795,267:  -1999  79  72
1720775795,267:  -1820  79  72
1720775795,267:  -1159  79  72
1720775795,267:    -71  79  72
1720775795,267:   1325  79  72
1720775795,267:   3015  79  72
1720775795,267:   5043  79  72
1720775795,267:   7320  79  72
1720775795,267:   9567  79  72
1720775795,267:  11529  79  72
1720775795,267:  13174  79  72
1720775795,267:  14617  79  72
1720775795,267:  15818  79  72
1720775795,267:  16488  79  72
1720775795,298:  16350  84  76
1720775795,298:  15442  84  76
1720775795,298:  14076  84  76
1720775795,298:  12476  84  76
1720775795,298:  10579  84  76
1720775795,298:   8249  84  76
1720775795,298:   5645  84  76
1720775795,298:   3247  84  76
1720775795,298:   1450  84  76
1720775795,298:    217  84  76
1720775795,298:   -788  84  76
1720775795,298:  -1751  84  76
1720775795,298:  -2499  84  76
1720775795,298:  -2748  84  76
1720775795,298:  -2530  84  76
1720775795,329:  -2234  84  76
1720775795,329:  -2234  84  76
1720775795,329:  -2556  84  76
1720775795,329:  -2929  84  76
1720775795,329:  -3146  84  76
1720775795,329:  -3260  84  76
1720775795,329:  -3436  84  76
1720775795,329:  -3695  84  76
1720775795,329:  -3886  84  76
1720775795,329:  -3891  84  76
1720775795,329:  -3778  84  76
1720775795,329:  -3693  84  76
1720775795,329:  -3669  84  76
1720775795,329:  -3595  84  76
1720775795,329:  -3400  84  76
1720775795,329:  -3185  84  76
1720775795,329:  -3121  84  76
1720775795,329:  -3235  84  76
1720775795,329:  -3359  84  76
1720775795,329:  -3321  84  76
1720775795,329:  -3137  84  76
1720775795,329:  -2956  84  76
1720775795,361:  -2861  84  76
1720775795,361:  -2776  84  76
1720775795,361:  -2613  84  76
1720775795,361:  -2425  84  76
1720775795,361:  -2356  84  76
1720775795,361:  -2439  84  76
1720775795,361:  -2529  84  76
1720775795,361:  -2462  84  76
1720775795,361:  -2261  84  76
1720775795,361:  -2107  84  76
1720775795,361:  -2104  84  76
1720775795,361:  -2163  84  76
1720775795,361:  -2121  84  76
1720775795,393:  -1973  84  76
1720775795,393:  -1870  84  76
1720775795,393:  -1918  84  76
1720775795,393:  -2026  84  76
1720775795,393:  -2016  84  76
1720775795,393:  -1857  84  76
1720775795,393:  -1704  84  76
1720775795,393:  -1697  84  76
1720775795,393:  -1782  84  76
1720775795,393:  -1787  84  76
1720775795,393:  -1653  84  76
1720775795,393:  -1513  84  76
1720775795,393:  -1509  84  76
1720775795,393:  -1606  84  76
1720775795,393:  -1629  84  76
1720775795,425:  -1505  84  76
1720775795,425:  -1354  84  76
1720775795,425:  -1326  84  76
1720775795,425:  -1407  84  76
1720775795,425:  -1437  84  76
1720775795,425:  -1333  84  76
1720775795,425:  -1197  84  76
1720775795,425:  -1177  84  76
1720775795,425:  -1268  84  76
1720775795,425:  -1323  84  76
1720775795,425:  -1254  84  76
1720775795,425:  -1148  84  76
1720775795,425:  -1140  84  76
1720775795,425:  -1225  84  76
1720775795,425:  -1261  84  76
1720775795,456:  -1170  84  76
1720775795,456:  -1041  84  76
1720775795,456:  -1019  84  76
1720775795,456:  -1095  84  76
1720775795,456:  -1127  84  76
1720775795,456:  -1029  84  76
1720775795,456:   -901  84  76
1720775795,456:   -898  84  76
1720775795,456:  -1020  84  76
1720775795,456:  -1099  84  76
1720775795,456:  -1017  84  76
1720775795,456:   -873  84  76
1720775795,456:   -851  84  76
1720775795,456:   -980  84  76
1720775795,456:  -1080  84  76
1720775795,488:   -993  84  76
1720775795,488:   -793  84  76
1720775795,488:   -694  84  76
1720775795,488:   -774  84  76
1720775795,488:   -867  84  76
1720775795,488:   -776  84  76
1720775795,488:   -533  84  76
1720775795,488:   -358  84  76
1720775795,488:   -388  84  76
1720775795,488:   -512  84  76
1720775795,488:   -527  84  76
1720775795,488:   -401  84  76
1720775795,488:   -294  84  76
1720775795,488:   -338  84  76
1720775795,488:   -466  84  76
1720775795,488:   -507  84  76
1720775795,488:   -414  84  76
1720775795,488:   -303  84  76
1720775795,488:   -281  84  76
1720775795,488:   -306  84  76
1720775795,488:   -263  84  76
1720775795,488:   -134  84  76
1720775795,519:    -28  84  76
1720775795,519:    -27  84  76
1720775795,519:    -67  84  76
1720775795,519:    -24  84  76
1720775795,519:    117  84  76
1720775795,519:    230  84  76
1720775795,519:    212  84  76
1720775795,519:    126  84  76
1720775795,519:    124  84  76
1720775795,519:    249  84  76
1720775795,519:    373  84  76
1720775795,519:    362  84  76
1720775795,519:    255  84  76
1720775795,519:    210  84  76
1720775795,519:    297  84  76
1720775795,551:    400  84  76
1720775795,551:    378  84  76
1720775795,551:    254  84  76
1720775795,551:    191  84  76
1720775795,551:    266  84  76
1720775795,551:    363  84  76
1720775795,551:    325  84  76
1720775795,551:    166  84  76
1720775795,551:     68  84  76
1720775795,551:    137  84  76
1720775795,551:    260  84  76
1720775795,551:    256  84  76
1720775795,551:    109  84  76
1720775795,551:     -8  84  76
1720775795,551:     30  84  76
1720775795,582:    144  84  76
1720775795,582:    159  84  76
1720775795,582:     40  84  76
1720775795,582:    -72  84  76
1720775795,582:    -50  84  76
1720775795,582:     45  84  76
1720775795,582:     58  84  76
1720775795,582:    -46  84  76
1720775795,582:   -137  84  76
1720775795,582:    -97  84  76
1720775795,582:     13  84  76
1720775795,582:     36  84  76
1720775795,582:    -80  84  76
1720775795,582:   -203  84  76
1720775795,582:   -193  84  76
1720775795,613:    -83  84  76
1720775795,613:    -26  84  76
1720775795,613:    -96  84  76
1720775795,613:   -189  84  76
1720775795,613:   -165  84  76
1720775795,613:    -36  84  76
1720775795,613:     49  84  76
1720775795,613:      6  84  76
1720775795,613:    -79  84  76
1720775795,613:    -59  84  76
1720775795,613:     69  84  76
1720775795,613:    165  84  76
1720775795,613:    125  84  76
1720775795,613:     19  84  76
1720775795,613:     -3  84  76
1720775795,613:     86  84  76
1720775795,613:    161  84  76
1720775795,613:    111  84  76
1720775795,613:     -7  84  76
1720775795,613:    -40  84  76
1720775795,613:     54  84  76
1720775795,613:    153  84  76
1720775795,613:    125  84  76
1720775795,645:      7  84  76
1720775795,645:    -51  84  76
1720775795,645:     18  84  76
1720775795,645:    109  84  76
1720775795,645:     90  84  76
1720775795,645:    -25  84  76
1720775795,645:    -92  84  76
1720775795,676:    -32  84  76
1720775795,676:     64  84  76
1720775795,676:     60  84  76
1720775795,676:    -46  84  76
1720775795,676:   -117  84  76
1720775795,676:    -72  84  76
1720775795,676:      6  84  76
1720775795,676:    -19  84  76
1720775795,676:   -151  84  76
1720775795,676:   -247  84  76
1720775795,676:   -207  84  76
1720775795,676:   -105  84  76
1720775795,676:    -93  84  76
1720775795,676:   -202  84  76
1720775795,676:   -305  84  76
1720775795,676:   -290  84  76
1720775795,676:   -211  84  76
1720775795,676:   -204  84  76
1720775795,676:   -306  84  76
1720775795,676:   -399  84  76
1720775795,676:   -368  84  76
1720775795,676:   -255  84  76
1720775795,676:   -201  84  76
1720775795,707:   -257  84  76
1720775795,707:   -330  84  76
1720775795,707:   -310  84  76
1720775795,707:   -234  84  76
1720775795,707:   -231  84  76
1720775795,707:   -349  84  76
1720775795,707:   -480  84  76
1720775795,707:   -503  84  76
1720775795,707:   -440  84  76
1720775795,707:   -429  84  76
1720775795,707:   -529  84  76
1720775795,707:   -640  84  76
1720775795,707:   -626  84  76
1720775795,707:   -498  84  76
1720775795,707:   -404  84  76
1720775795,738:   -442  84  76
1720775795,738:   -539  84  76
1720775795,738:   -552  84  76
1720775795,738:   -458  84  76
1720775795,738:   -378  84  76
1720775795,738:   -415  84  76
1720775795,738:   -520  84  76
1720775795,738:   -562  84  76
1720775795,738:   -504  84  76
1720775795,738:   -449  84  76
1720775795,738:   -494  84  76
1720775795,738:   -599  84  76
1720775795,738:   -634  84  76
1720775795,738:   -560  84  76
1720775795,738:   -483  84  76
1720775795,769:   -519  84  76
1720775795,769:   -639  84  76
1720775795,769:   -704  84  76
1720775795,769:   -649  84  76
1720775795,769:   -570  84  76
1720775795,769:   -595  84  76
1720775795,769:   -714  84  76
1720775795,769:   -788  84  76
1720775795,769:   -733  84  76
1720775795,769:   -634  84  76
1720775795,769:   -635  84  76
1720775795,769:   -752  84  76
1720775795,769:   -847  84  76
1720775795,769:   -813  84  76
1720775795,769:   -713  84  76
1720775795,801:   -698  84  76
1720775795,801:   -807  84  76
1720775795,801:   -913  84  76
1720775795,801:   -889  84  76
1720775795,801:   -781  84  76
1720775795,801:   -741  84  76
1720775795,801:   -828  84  76
1720775795,801:   -931  84  76
1720775795,801:   -916  84  76
1720775795,801:   -814  84  76
1720775795,801:   -770  84  76
1720775795,801:   -851  84  76
1720775795,801:   -951  84  76
1720775795,801:   -926  84  76
1720775795,801:   -795  84  76
1720775795,832:   -714  84  76
1720775795,832:   -774  84  76
1720775795,832:   -881  84  76
1720775795,832:   -880  84  76
1720775795,832:   -768  84  76
1720775795,832:   -690  84  76
1720775795,832:   -753  84  76
1720775795,832:   -883  84  76
1720775795,832:   -926  84  76
1720775795,832:   -851  84  76
1720775795,832:   -780  84  76
1720775795,832:   -818  84  76
1720775795,832:   -911  84  76
1720775795,832:   -928  84  76
1720775795,832:   -847  84  76
1720775795,864:   -780  84  76
1720775795,864:   -814  84  76
1720775795,864:   -887  84  76
1720775795,864:   -871  84  76
1720775795,864:   -757  84  76
1720775795,864:   -674  84  76
1720775795,864:   -714  84  76
1720775795,864:   -805  84  76
1720775795,864:   -802  84  76
1720775795,864:   -683  84  76
1720775795,864:   -591  84  76
1720775795,864:   -644  84  76
1720775795,864:   -786  84  76
1720775795,864:   -852  84  76
1720775795,864:   -783  84  76
1720775795,895:   -696  84  76
1720775795,895:   -730  84  76
1720775795,895:   -870  84  76
1720775795,895:   -966  84  76
1720775795,895:   -935  84  76
1720775795,895:   -862  84  76
1720775795,895:   -879  84  76
1720775795,895:   -991  84  76
1720775795,895:  -1068  84  76
1720775795,895:  -1019  84  76
1720775795,895:   -920  84  76
1720775795,895:   -911  84  76
1720775795,895:  -1015  84  76
1720775795,895:  -1111  84  76
1720775795,895:  -1091  84  76
1720775795,927:  -1008  84  76
1720775795,927:  -1004  84  76
1720775795,927:  -1123  84  76
1720775795,927:  -1253  84  76
1720775795,927:  -1270  84  76
1720775795,927:  -1203  84  76
1720775795,927:  -1181  84  76
1720775795,927:  -1259  84  76
1720775795,927:  -1342  84  76
1720775795,927:  -1316  84  76
1720775795,927:  -1204  84  76
1720775795,927:  -1136  84  76
1720775795,927:  -1174  84  76
1720775795,927:  -1226  84  76
1720775795,927:  -1167  84  76
1720775795,958:  -1019  84  76
1720775795,958:   -956  84  76
1720775795,958:  -1117  84  76
1720775795,958:  -1471  84  76
1720775795,958:  -1874  84  76
1720775795,958:  -2260  84  76
1720775795,958:  -2689  84  76
1720775795,958:  -3195  84  76
1720775795,958:  -3647  84  76
1720775795,958:  -3808  84  76
1720775795,958:  -3552  84  76
1720775795,958:  -2943  84  76
1720775795,958:  -2090  84  76
1720775795,958:   -954  84  76
1720775795,958:    624  84  76
1720775795,958:   2667  84  76
1720775795,958:   4921  84  76
1720775795,958:   7031  84  76
1720775795,958:   8859  84  76
1720775795,958:  10548  84  76
1720775795,958:  12229  84  76
1720775795,958:  13752  84  76
1720775795,989:  14779  86  81
1720775795,989:  15110  86  81
1720775795,989:  14839  86  81
1720775795,989:  14131  86  81
1720775795,989:  12956  86  81
1720775795,989:  11149  86  81
1720775795,989:   8734  86  81
1720775795,989:   6079  86  81
1720775795,989:   3641  86  81
1720775795,989:   1593  86  81
1720775795,989:   -191  86  81
1720775795,989:  -1832  86  81
1720775795,989:  -3202  86  81
1720775795,989:  -4058  86  81
1720775795,989:  -4341  86  81
1720775796,021:  -4265  86  81
1720775796,021:  -4107  86  81
1720775796,021:  -4007  86  81
1720775796,021:  -3981  86  81
1720775796,021:  -4061  86  81
1720775796,021:  -4294  86  81
1720775796,021:  -4634  86  81
1720775796,021:  -4928  86  81
1720775796,021:  -5061  86  81
1720775796,021:  -5096  86  81
1720775796,021:  -5171  86  81
1720775796,021:  -5307  86  81
1720775796,021:  -5351  86  81
1720775796,021:  -5177  86  81
1720775796,021:  -4871  86  81
1720775796,053:  -4650  86  81
1720775796,053:  -4621  86  81
1720775796,053:  -4683  86  81
1720775796,053:  -4688  86  81
1720775796,053:  -4635  86  81
1720775796,053:  -4631  86  81
1720775796,053:  -4703  86  81
1720775796,053:  -4716  86  81
1720775796,053:  -4535  86  81
1720775796,053:  -4223  86  81
1720775796,053:  -3999  86  81
1720775796,053:  -3990  86  81
1720775796,053:  -4089  86  81
1720775796,053:  -4095  86  81
1720775796,053:  -3966  86  81
1720775796,084:  -3842  86  81
1720775796,084:  -3834  86  81
1720775796,084:  -3867  86  81
1720775796,084:  -3774  86  81
1720775796,084:  -3543  86  81
1720775796,084:  -3344  86  81
1720775796,084:  -3322  86  81
1720775796,084:  -3407  86  81
1720775796,084:  -3410  86  81
1720775796,084:  -3270  86  81
1720775796,084:  -3128  86  81
1720775796,084:  -3130  86  81
1720775796,084:  -3226  86  81
1720775796,084:  -3228  86  81
1720775796,084:  -3075  86  81
1720775796,115:  -2912  86  81
1720775796,115:  -2905  86  81
1720775796,115:  -3016  86  81
1720775796,115:  -3048  86  81
1720775796,115:  -2907  86  81
1720775796,115:  -2726  86  81
1720775796,115:  -2684  86  81
1720775796,115:  -2775  86  81
1720775796,115:  -2816  86  81
1720775796,115:  -2695  86  81
1720775796,115:  -2522  86  81
1720775796,115:  -2474  86  81
1720775796,115:  -2558  86  81
1720775796,115:  -2603  86  81
1720775796,115:  -2496  86  81
1720775796,146:  -2340  86  81
1720775796,146:  -2314  86  81
1720775796,146:  -2428  86  81
1720775796,146:  -2500  86  81
1720775796,146:  -2395  86  81
1720775796,146:  -2205  86  81
1720775796,146:  -2130  86  81
1720775796,146:  -2218  86  81
1720775796,146:  -2300  86  81
1720775796,146:  -2216  86  81
1720775796,146:  -2028  86  81
1720775796,146:  -1937  86  81
1720775796,146:  -2016  86  81
1720775796,146:  -2113  86  81
1720775796,146:  -2057  86  81
1720775796,146:  -1884  86  81
1720775796,146:  -1787  86  81
1720775796,146:  -1851  86  81
1720775796,146:  -1940  86  81
1720775796,146:  -1878  86  81
1720775796,146:  -1691  86  81
1720775796,146:  -1578  86  81
1720775796,146:  -1640  86  81
1720775796,177:  -1746  86  81
1720775796,177:  -1695  86  81
1720775796,177:  -1493  86  81
1720775796,177:  -1341  86  81
1720775796,177:  -1370  86  81
1720775796,177:  -1474  86  81
1720775796,177:  -1445  86  81
1720775796,177:  -1266  86  81
1720775796,177:  -1127  86  81
1720775796,177:  -1174  86  81
