timestamp: ADC HeartRate4sAverage HeartRate30sAverage
1720776647,881:  -1336  69  74
1720776647,881:   3043  69  74
1720776647,881:   6488  69  74
1720776647,881:   4269  69  74
1720776647,881:   -852  69  74
1720776647,881:  -2141  69  74
1720776647,881:   2003  69  74
1720776647,881:   6030  69  74
1720776647,881:   4664  69  74
1720776647,881:   -119  69  74
1720776647,881:  -1706  69  74
1720776647,881:   2124  69  74
1720776647,881:   6237  69  74
1720776647,881:   5043  69  74
1720776647,881:    -70  69  74
1720776647,913:  -2380  69  74
1720776647,913:   1086  69  74
1720776647,913:   5662  69  74
1720776647,913:   5328  69  74
1720776647,913:    671  69  74
1720776647,913:  -1869  69  74
1720776647,913:   1236  69  74
1720776647,913:   5822  69  74
1720776647,913:   5682  69  74
1720776647,913:    784  69  74
1720776647,913:  -2458  69  74
1720776647,913:    180  69  74
1720776647,913:   5120  69  74
1720776647,913:   5847  69  74
1720776647,913:   1525  69  74
1720776647,913:  -1865  69  74
1720776647,913:    381  69  74
1720776647,913:   5271  69  74
1720776647,913:   6229  69  74
1720776647,913:   1783  69  74
1720776647,913:  -2274  69  74
1720776647,913:   -625  69  74
1720776647,913:   4441  69  74
1720776647,944:   6214  69  74
1720776647,944:   2453  69  74
1720776647,944:  -1615  69  74
1720776647,944:   -332  69  74
1720776647,944:   4627  69  74
1720776647,944:   6602  69  74
1720776647,944:   2757  69  74
1720776647,944:  -1970  69  74
1720776647,944:  -1383  69  74
1720776647,944:   3635  69  74
1720776647,944:   6422  69  74
1720776647,944:   3373  69  74
1720776647,944:  -1268  69  74
1720776647,944:  -1076  69  74
1720776647,944:   3764  69  74
1720776647,976:   6793  69  74
1720776647,976:   3842  69  74
1720776647,976:  -1327  69  74
1720776647,976:  -1905  69  74
1720776647,976:   2761  69  74
1720776647,976:   6436  69  74
1720776647,976:   4297  69  74
1720776647,976:   -656  69  74
1720776647,976:  -1579  69  74
1720776647,976:   2867  69  74
1720776647,976:   6749  69  74
1720776647,976:   4772  69  74
1720776647,976:   -649  69  74
1720776647,976:  -2398  69  74
1720776647,976:   1741  69  74
1720776648,006:   6242  69  74
1720776648,006:   5234  69  74
1720776648,006:    262  69  74
1720776648,006:  -1749  69  74
1720776648,006:   2053  69  74
1720776648,006:   6606  69  74
1720776648,006:   5747  69  74
1720776648,006:    392  69  74
1720776648,006:  -2448  69  74
1720776648,006:    871  69  74
1720776648,006:   5827  69  74
1720776648,006:   5843  69  74
1720776648,006:   1003  69  74
1720776648,006:  -2003  69  74
1720776648,006:   1042  69  74
1720776648,037:   6130  69  74
1720776648,037:   6452  69  74
1720776648,037:   1388  69  74
1720776648,037:  -2439  69  74
1720776648,037:    -46  69  74
1720776648,037:   5265  69  74
1720776648,037:   6434  69  74
1720776648,037:   1997  69  74
1720776648,037:  -1916  69  74
1720776648,037:    148  69  74
1720776648,037:   5497  69  74
1720776648,037:   6983  69  74
1720776648,037:   2426  69  74
1720776648,037:  -2279  69  74
1720776648,037:   -995  69  74
1720776648,069:   4426  69  74
1720776648,069:   6766  69  74
1720776648,069:   3010  69  74
1720776648,069:  -1613  69  74
1720776648,069:   -646  69  74
1720776648,069:   4751  69  74
1720776648,069:   7455  69  74
1720776648,069:   3791  69  74
1720776648,069:  -1463  69  74
1720776648,069:  -1395  69  74
1720776648,069:   3675  69  74
1720776648,069:   6744  69  74
1720776648,069:   3432  69  74
1720776648,069:  -2148  69  74
1720776648,069:  -2795  69  74
1720776648,100:   2014  69  74
1720776648,100:   5565  69  74
1720776648,100:   2882  69  74
1720776648,100:  -2518  69  74
1720776648,100:  -3064  69  74
1720776648,100:   2711  69  74
1720776648,100:   8406  69  74
1720776648,100:   8253  69  74
1720776648,100:   4688  69  74
1720776648,100:   5001  69  74
1720776648,100:  11250  69  74
1720776648,100:  17407  69  74
1720776648,100:  17309  69  74
1720776648,100:  12758  69  74
1720776648,100:  11256  69  74
1720776648,131:  15779  67  72
1720776648,131:  20844  67  72
1720776648,131:  19809  67  72
1720776648,131:  13599  67  72
1720776648,131:   9459  67  72
1720776648,131:  11086  67  72
1720776648,131:  13735  67  72
1720776648,131:  10859  67  72
1720776648,131:   3062  67  72
1720776648,131:  -2215  67  72
1720776648,131:   -584  67  72
1720776648,131:   3537  67  72
1720776648,131:   2967  67  72
1720776648,131:  -2650  67  72
1720776648,131:  -6252  67  72
1720776648,131:  -2943  67  72
1720776648,131:   3161  67  72
1720776648,131:   4275  67  72
1720776648,131:   -999  67  72
1720776648,131:  -5686  67  72
1720776648,131:  -3748  67  72
1720776648,131:   1938  67  72
1720776648,162:   3631  67  72
1720776648,162:   -997  67  72
1720776648,162:  -5722  67  72
1720776648,162:  -4136  67  72
1720776648,162:   1631  67  72
1720776648,162:   3914  67  72
1720776648,162:   -368  67  72
1720776648,162:  -5436  67  72
1720776648,193:  -4363  67  72
1720776648,193:   1556  67  72
1720776648,193:   4647  67  72
1720776648,193:    998  67  72
1720776648,193:  -4306  67  72
1720776648,193:  -3941  67  72
1720776648,193:   1695  67  72
1720776648,193:   5176  67  72
1720776648,193:   1885  67  72
1720776648,193:  -3757  67  72
1720776648,193:  -4109  67  72
1720776648,193:   1345  67  72
1720776648,193:   5465  67  72
1720776648,193:   2958  67  72
1720776648,193:  -2582  67  72
1720776648,225:  -3443  67  72
1720776648,225:   1673  67  72
1720776648,225:   6016  67  72
1720776648,225:   3785  67  72
1720776648,225:  -2111  67  72
1720776648,225:  -3770  67  72
1720776648,225:    987  67  72
1720776648,225:   5845  67  72
1720776648,225:   4452  67  72
1720776648,225:  -1145  67  72
1720776648,225:  -3178  67  72
1720776648,225:   1248  67  72
1720776648,225:   6284  67  72
1720776648,225:   5180  67  72
1720776648,225:   -752  67  72
1720776648,256:  -3648  67  72
1720776648,256:    287  67  72
1720776648,256:   5822  67  72
1720776648,256:   5734  67  72
1720776648,256:    357  67  72
1720776648,256:  -2830  67  72
1720776648,256:    631  67  72
1720776648,256:   6145  67  72
1720776648,256:   6305  67  72
1720776648,256:    690  67  72
1720776648,256:  -3318  67  72
1720776648,256:   -463  67  72
1720776648,256:   5414  67  72
1720776648,256:   6606  67  72
1720776648,256:   1715  67  72
1720776648,256:  -2460  67  72
1720776648,256:   -122  67  72
1720776648,256:   5639  67  72
1720776648,256:   7118  67  72
1720776648,256:   2166  67  72
1720776648,256:  -2733  67  72
1720776648,256:  -1138  67  72
1720776648,286:   4735  67  72
1720776648,286:   7129  67  72
1720776648,286:   3007  67  72
1720776648,286:  -1906  67  72
1720776648,286:   -840  67  72
1720776648,286:   4773  67  72
1720776648,286:   7382  67  72
1720776648,286:   3314  67  72
1720776648,286:  -2167  67  72
1720776648,286:  -1828  67  72
1720776648,286:   3791  67  72
1720776648,286:   7271  67  72
1720776648,286:   4152  67  72
1720776648,286:  -1156  67  72
1720776648,286:  -1306  67  72
1720776648,317:   3929  67  72
1720776648,317:   7486  67  72
1720776648,317:   4424  67  72
1720776648,317:  -1381  67  72
1720776648,317:  -2258  67  72
1720776648,317:   2873  67  72
1720776648,317:   7210  67  72
1720776648,317:   5122  67  72
1720776648,317:   -395  67  72
1720776648,317:  -1703  67  72
1720776648,317:   3041  67  72
1720776648,317:   7479  67  72
1720776648,317:   5564  67  72
1720776648,317:   -363  67  72
1720776648,317:  -2485  67  72
1720776648,349:   1916  67  72
1720776648,349:   6965  67  72
1720776648,349:   6073  67  72
1720776648,349:    646  67  72
1720776648,349:  -1778  67  72
1720776648,349:   2178  67  72
1720776648,349:   7194  67  72
1720776648,349:   6449  67  72
1720776648,349:    692  67  72
1720776648,349:  -2493  67  72
1720776648,349:   1078  67  72
1720776648,349:   6659  67  72
1720776648,349:   6972  67  72
1720776648,349:   1813  67  72
1720776648,349:  -1647  67  72
1720776648,380:   1420  67  72
1720776648,380:   6960  67  72
1720776648,380:   7565  67  72
1720776648,380:   2260  67  72
1720776648,380:  -1967  67  72
1720776648,380:    445  67  72
1720776648,380:   6224  67  72
1720776648,380:   7762  67  72
1720776648,380:   3170  67  72
1720776648,380:  -1192  67  72
1720776648,380:    696  67  72
1720776648,380:   6305  67  72
1720776648,380:   8077  67  72
1720776648,380:   3423  67  72
1720776648,380:  -1625  67  72
1720776648,380:   -446  67  72
1720776648,380:   5295  67  72
1720776648,380:   8019  67  72
1720776648,380:   4267  67  72
1720776648,380:   -713  67  72
1720776648,380:    -43  67  72
1720776648,380:   5372  67  72
1720776648,380:   8206  67  72
1720776648,412:   4440  67  72
1720776648,412:  -1122  67  72
1720776648,412:  -1172  67  72
1720776648,412:   4229  67  72
1720776648,412:   7887  67  72
1720776648,412:   5034  67  72
1720776648,412:   -340  67  72
1720776648,443:   -819  67  72
1720776648,443:   4290  67  72
1720776648,443:   8123  67  72
1720776648,443:   5396  67  72
1720776648,443:   -474  67  72
1720776648,443:  -1763  67  72
1720776648,443:   3112  67  72
1720776648,443:   7623  67  72
1720776648,443:   5851  67  72
1720776648,443:    331  67  72
1720776648,443:  -1312  67  72
1720776648,443:   3210  67  72
1720776648,443:   7810  67  72
1720776648,443:   6188  67  72
1720776648,443:    238  67  72
1720776648,474:  -2238  67  72
1720776648,474:   1936  67  72
1720776648,474:   7172  67  72
1720776648,474:   6614  67  72
1720776648,474:   1197  67  72
1720776648,474:  -1584  67  72
1720776648,474:   2127  67  72
1720776648,474:   7358  67  72
1720776648,474:   7039  67  72
1720776648,474:   1375  67  72
1720776648,474:  -2197  67  72
1720776648,474:    965  67  72
1720776648,474:   6558  67  72
1720776648,474:   7192  67  72
1720776648,474:   2158  67  72
1720776648,474:  -1600  67  72
1720776648,474:   1100  67  72
1720776648,474:   6626  67  72
1720776648,474:   7514  67  72
1720776648,474:   2337  67  72
1720776648,474:  -2163  67  72
1720776648,474:   -104  67  72
1720776648,474:   5687  67  72
1720776648,505:   7580  67  72
1720776648,505:   3229  67  72
1720776648,505:  -1312  67  72
1720776648,505:    227  67  72
1720776648,505:   5771  67  72
1720776648,505:   7830  67  72
1720776648,505:   3420  67  72
1720776648,505:  -1768  67  72
1720776648,505:   -922  67  72
1720776648,505:   4727  67  72
1720776648,505:   7699  67  72
1720776648,505:   4177  67  72
1720776648,505:   -925  67  72
1720776648,505:   -566  67  72
1720776648,505:   4794  67  72
1720776648,536:   7933  67  72
1720776648,536:   4464  67  72
1720776648,536:  -1198  67  72
1720776648,536:  -1608  67  72
1720776648,536:   3664  67  72
1720776648,536:   7606  67  72
1720776648,536:   5098  67  72
1720776648,536:   -310  67  72
1720776648,536:  -1141  67  72
1720776648,536:   3779  67  72
1720776648,536:   7826  67  72
1720776648,536:   5422  67  72
1720776648,536:   -472  67  72
1720776648,536:  -2108  67  72
1720776648,536:   2588  67  72
1720776648,567:   7365  67  72
1720776648,567:   5998  67  72
1720776648,567:    505  67  72
1720776648,567:  -1532  67  72
1720776648,567:   2691  67  72
1720776648,567:   7472  67  72
1720776648,567:   6283  67  72
1720776648,598:    464  67  72
1720776648,598:  -2334  67  72
1720776648,598:   1514  67  72
1720776648,598:   6850  67  72
1720776648,598:   6679  67  72
1720776648,598:   1405  67  72
1720776648,598:  -1693  67  72
1720776648,598:   1638  67  72
1720776648,598:   6876  67  72
1720776648,598:   6891  67  72
1720776648,598:   1396  67  72
1720776648,598:  -2430  67  72
1720776648,598:    394  67  72
1720776648,598:   6041  67  72
1720776648,598:   7100  67  72
1720776648,598:   2366  67  72
1720776648,598:  -1573  67  72
1720776648,598:    720  67  72
1720776648,598:   6123  67  72
1720776648,598:   7297  67  72
1720776648,598:   2424  67  72
1720776648,598:  -2153  67  72
1720776648,598:   -426  67  72
1720776648,629:   5211  67  72
1720776648,629:   7298  67  72
1720776648,629:   3185  67  72
1720776648,629:  -1431  67  72
1720776648,629:   -184  67  72
1720776648,629:   5259  67  72
1720776648,629:   7564  67  72
1720776648,629:   3444  67  72
1720776648,629:  -1798  67  72
1720776648,629:  -1272  67  72
1720776648,629:   4225  67  72
1720776648,629:   7427  67  72
1720776648,629:   4230  67  72
1720776648,629:   -886  67  72
1720776648,629:   -862  67  72
1720776648,661:   4274  67  72
1720776648,661:   7575  67  72
1720776648,661:   4420  67  72
1720776648,661:  -1224  67  72
1720776648,661:  -1937  67  72
1720776648,661:   3128  67  72
1720776648,661:   7250  67  72
1720776648,661:   5088  67  72
1720776648,661:   -273  67  72
1720776648,661:  -1429  67  72
1720776648,661:   3225  67  72
1720776648,661:   7417  67  72
1720776648,661:   5398  67  72
1720776648,661:   -370  67  72
1720776648,661:  -2291  67  72
1720776648,692:   2091  67  72
1720776648,692:   6928  67  72
1720776648,692:   5902  67  72
1720776648,692:    561  67  72
1720776648,692:  -1728  67  72
1720776648,692:   2176  67  72
1720776648,692:   6987  67  72
1720776648,692:   6135  67  72
1720776648,692:    494  67  72
1720776648,692:  -2542  67  72
1720776648,692:    965  67  72
1720776648,692:   6312  67  72
1720776648,692:   6509  67  72
1720776648,692:   1500  67  72
1720776648,692:  -1757  67  72
1720776648,724:   1247  67  72
1720776648,724:   6454  67  72
1720776648,724:   6796  67  72
1720776648,724:   1558  67  72
1720776648,724:  -2423  67  72
1720776648,724:     59  67  72
1720776648,724:   5623  67  72
1720776648,724:   6942  67  72
1720776648,724:   2416  67  72
1720776648,724:  -1675  67  72
1720776648,724:    332  67  72
1720776648,724:   5751  67  72
1720776648,724:   7275  67  72
1720776648,724:   2647  67  72
1720776648,724:  -2133  67  72
1720776648,756:   -788  67  72
1720776648,756:   4801  67  72
1720776648,756:   7260  67  72
1720776648,756:   3478  67  72
1720776648,756:  -1267  67  72
1720776648,756:   -418  67  72
1720776648,756:   4878  67  72
1720776648,756:   7448  67  72
1720776648,756:   3620  67  72
1720776648,756:  -1730  67  72
1720776648,756:  -1572  67  72
1720776648,756:   3792  67  72
1720776648,756:   7273  67  72
1720776648,756:   4391  67  72
1720776648,756:   -796  67  72
1720776648,756:  -1121  67  72
1720776648,756:   3896  67  72
1720776648,756:   7510  67  72
1720776648,756:   4736  67  72
1720776648,756:   -947  67  72
1720776648,756:  -2061  67  72
1720776648,756:   2763  67  72
1720776648,786:   7099  67  72
1720776648,786:   5293  67  72
1720776648,786:    -71  67  72
1720776648,786:  -1599  67  72
1720776648,786:   2818  67  72
1720776648,786:   7228  67  72
1720776648,786:   5604  67  72
1720776648,786:   -129  67  72
1720776648,786:  -2436  67  72
1720776648,786:   1653  67  72
1720776648,786:   6685  67  72
1720776648,786:   6102  67  72
1720776648,786:    894  67  72
1720776648,786:  -1712  67  72
1720776648,786:   1895  67  72
1720776648,817:   6844  67  72
1720776648,817:   6397  67  72
1720776648,817:    888  67  72
1720776648,817:  -2465  67  72
1720776648,817:    709  67  72
1720776648,817:   6134  67  72
1720776648,817:   6670  67  72
1720776648,817:   1743  67  72
1720776648,817:  -1859  67  72
1720776648,817:    825  67  72
1720776648,817:   6179  67  72
1720776648,817:   6968  67  72
1720776648,817:   1903  67  72
1720776648,849:  -2412  67  72
1720776648,849:   -321  67  72
1720776648,849:   5323  67  72
1720776648,849:   7084  67  72
1720776648,849:   2771  67  72
1720776648,849:  -1632  67  72
1720776648,849:    -39  67  72
1720776648,849:   5412  67  72
1720776648,849:   7364  67  72
1720776648,849:   2968  67  72
1720776648,849:  -2123  67  72
1720776648,849:  -1241  67  72
1720776648,849:   4334  67  72
1720776648,849:   7225  67  72
1720776648,849:   3725  67  72
1720776648,880:  -1279  67  72
1720776648,880:   -863  67  72
1720776648,880:   4469  67  72
1720776648,880:   7591  67  72
1720776648,880:   4216  67  72
1720776648,880:  -1280  67  72
1720776648,880:  -1595  67  72
1720776648,880:   3605  67  72
1720776648,880:   7360  67  72
1720776648,880:   4630  67  72
1720776648,880:  -1035  67  72
1720776648,880:  -2220  67  72
1720776648,880:   2255  67  72
1720776648,880:   5907  67  72
1720776648,880:   3320  67  72
1720776648,911:  -2500  67  72
1720776648,911:  -3861  67  72
1720776648,911:   1296  67  72
1720776648,911:   6840  67  72
1720776648,911:   6672  67  72
1720776648,911:   2787  67  72
1720776648,911:   2570  67  72
1720776648,911:   8601  67  72
1720776648,911:  15082  67  72
1720776648,911:  15506  67  72
1720776648,911:  11205  67  72
1720776648,911:   9726  67  72
1720776648,911:  14562  67  72
1720776648,911:  20504  67  72
1720776648,911:  20560  67  72
1720776648,943:  15093  75  71
1720776648,943:  11263  75  71
1720776648,943:  13225  75  71
1720776648,943:  16523  75  71
1720776648,943:  14265  75  71
1720776648,943:   6456  75  71
1720776648,943:    473  75  71
1720776648,943:   1351  75  71
1720776648,943:   5265  75  71
1720776648,943:   4838  75  71
1720776648,943:  -1047  75  71
1720776648,943:  -5677  75  71
1720776648,943:  -3553  75  71
1720776648,943:   2127  75  71
1720776648,943:   3783  75  71
1720776648,943:   -720  75  71
1720776648,943:  -5229  75  71
1720776648,943:  -3686  75  71
1720776648,943:   1742  75  71
1720776648,943:   3755  75  71
1720776648,943:   -359  75  71
1720776648,943:  -5076  75  71
1720776648,974:  -4082  75  71
1720776648,974:   1121  75  71
1720776648,974:   3406  75  71
1720776648,974:   -497  75  71
1720776648,974:  -5453  75  71
1720776648,974:  -4742  75  71
1720776648,974:    854  75  71
1720776648,974:   4184  75  71
1720776648,974:   1145  75  71
1720776648,974:  -3908  75  71
1720776648,974:  -3994  75  71
1720776648,974:    996  75  71
1720776648,974:   4333  75  71
1720776648,974:   1444  75  71
1720776648,974:  -3878  75  71
1720776649,006:  -4426  75  71
1720776649,006:    647  75  71
1720776649,006:   4804  75  71
1720776649,006:   2790  75  71
1720776649,006:  -2426  75  71
1720776649,006:  -3600  75  71
1720776649,006:    915  75  71
1720776649,006:   5067  75  71
1720776649,006:   3228  75  71
1720776649,006:  -2271  75  71
1720776649,006:  -4065  75  71
1720776649,006:    244  75  71
1720776649,006:   4992  75  71
1720776649,006:   4023  75  71
1720776649,006:  -1158  75  71
1720776649,038:  -3353  75  71
1720776649,038:    535  75  71
1720776649,038:   5355  75  71
1720776649,038:   4642  75  71
1720776649,038:   -806  75  71
1720776649,038:  -3771  75  71
1720776649,038:   -365  75  71
1720776649,038:   4873  75  71
1720776649,038:   5104  75  71
1720776649,038:    231  75  71
1720776649,038:  -2960  75  71
1720776649,038:    -24  75  71
1720776649,038:   5120  75  71
1720776649,038:   5541  75  71
1720776649,038:    473  75  71
1720776649,038:  -3427  75  71
1720776649,038:  -1032  75  71
1720776649,038:   4429  75  71
1720776649,038:   5791  75  71
1720776649,038:   1418  75  71
1720776649,038:  -2608  75  71
1720776649,038:   -712  75  71
1720776649,038:   4581  75  71
1720776649,069:   6166  75  71
1720776649,069:   1753  75  71
1720776649,069:  -2884  75  71
1720776649,069:  -1628  75  71
1720776649,069:   3777  75  71
1720776649,069:   6202  75  71
1720776649,069:   2575  75  71
1720776649,100:  -2041  75  71
1720776649,100:  -1266  75  71
1720776649,100:   3873  75  71
1720776649,100:   6462  75  71
1720776649,100:   2869  75  71
1720776649,100:  -2272  75  71
1720776649,100:  -2177  75  71
1720776649,100:   2941  75  71
1720776649,100:   6309  75  71
1720776649,100:   3590  75  71
1720776649,100:  -1371  75  71
1720776649,100:  -1713  75  71
1720776649,100:   3049  75  71
1720776649,100:   6485  75  71
1720776649,100:   3823  75  71
1720776649,131:  -1599  75  71
1720776649,131:  -2629  75  71
1720776649,131:   2019  75  71
1720776649,131:   6176  75  71
1720776649,131:   4441  75  71
1720776649,131:   -671  75  71
1720776649,131:  -2079  75  71
1720776649,131:   2194  75  71
1720776649,131:   6417  75  71
1720776649,131:   4838  75  71
1720776649,131:   -640  75  71
1720776649,131:  -2790  75  71
1720776649,131:   1162  75  71
1720776649,131:   5939  75  71
1720776649,131:   5307  75  71
1720776649,161:    310  75  71
1720776649,161:  -2106  75  71
1720776649,161:   1426  75  71
1720776649,161:   6153  75  71
1720776649,161:   5648  75  71
1720776649,161:    348  75  71
1720776649,161:  -2777  75  71
1720776649,161:    372  75  71
1720776649,161:   5596  75  71
1720776649,161:   6069  75  71
1720776649,161:   1351  75  71
1720776649,161:  -2002  75  71
1720776649,161:    677  75  71
1720776649,161:   5838  75  71
1720776649,161:   6569  75  71
1720776649,161:   1732  75  71
1720776649,161:  -2311  75  71
1720776649,161:   -238  75  71
1720776649,161:   5134  75  71
1720776649,161:   6733  75  71
1720776649,161:   2584  75  71
1720776649,161:  -1560  75  71
1720776649,161:     14  75  71
1720776649,192:   5178  75  71
1720776649,192:   6953  75  71
1720776649,192:   2744  75  71
1720776649,192:  -2012  75  71
1720776649,192:  -1076  75  71
1720776649,192:   4218  75  71
1720776649,192:   6879  75  71
1720776649,192:   3521  75  71
1720776649,192:  -1157  75  71
1720776649,192:   -705  75  71
1720776649,192:   4245  75  71
1720776649,192:   6959  75  71
1720776649,192:   3562  75  71
1720776649,192:  -1658  75  71
1720776649,192:  -1864  75  71
1720776649,223:   3094  75  71
1720776649,223:   6610  75  71
1720776649,223:   4103  75  71
1720776649,223:   -916  75  71
1720776649,223:  -1532  75  71
1720776649,223:   3116  75  71
1720776649,223:   6764  75  71
1720776649,255:   4378  75  71
1720776649,255:  -1082  75  71
1720776649,255:  -2445  75  71
1720776649,255:   1979  75  71
1720776649,255:   6268  75  71
1720776649,255:   4814  75  71
1720776649,255:   -264  75  71
1720776649,255:  -1941  75  71
1720776649,255:   2106  75  71
1720776649,255:   6403  75  71
1720776649,255:   5045  75  71
1720776649,255:   -425  75  71
1720776649,255:  -2845  75  71
1720776649,255:    895  75  71
1720776649,255:   5783  75  71
1720776649,255:   5421  75  71
1720776649,255:    471  75  71
1720776649,255:  -2219  75  71
1720776649,255:   1066  75  71
1720776649,255:   5899  75  71
1720776649,255:   5731  75  71
1720776649,255:    570  75  71
1720776649,255:  -2810  75  71
1720776649,286:     -4  75  71
1720776649,286:   5178  75  71
1720776649,286:   5907  75  71
1720776649,286:   1357  75  71
1720776649,286:  -2191  75  71
1720776649,286:    136  75  71
1720776649,286:   5165  75  71
1720776649,286:   6060  75  71
1720776649,286:   1370  75  71
1720776649,286:  -2818  75  71
1720776649,286:  -1030  75  71
1720776649,286:   4274  75  71
1720776649,286:   6108  75  71
1720776649,286:   2193  75  71
1720776649,286:  -2024  75  71
1720776649,318:   -728  75  71
1720776649,318:   4313  75  71
1720776649,318:   6258  75  71
1720776649,318:   2270  75  71
1720776649,318:  -2533  75  71
1720776649,318:  -1851  75  71
1720776649,318:   3310  75  71
1720776649,318:   6118  75  71
1720776649,318:   2973  75  71
1720776649,318:  -1729  75  71
1720776649,318:  -1496  75  71
1720776649,318:   3364  75  71
1720776649,318:   6277  75  71
1720776649,318:   3148  75  71
1720776649,318:  -2066  75  71
1720776649,349:  -2511  75  71
1720776649,349:   2304  75  71
1720776649,349:   5980  75  71
1720776649,349:   3742  75  71
1720776649,349:  -1245  75  71
1720776649,349:  -2098  75  71
1720776649,349:   2361  75  71
1720776649,349:   6102  75  71
1720776649,349:   3946  75  71
1720776649,349:  -1487  75  71
1720776649,349:  -3072  75  71
1720776649,349:   1189  75  71
1720776649,349:   5611  75  71
1720776649,349:   4423  75  71
1720776649,349:   -610  75  71
1720776649,381:  -2529  75  71
1720776649,381:   1327  75  71
1720776649,381:   5762  75  71
1720776649,381:   4726  75  71
1720776649,381:   -642  75  71
1720776649,381:  -3302  75  71
1720776649,381:    180  75  71
1720776649,381:   5114  75  71
1720776649,381:   5014  75  71
1720776649,381:    156  75  71
1720776649,381:  -2768  75  71
1720776649,381:    251  75  71
1720776649,381:   5106  75  71
1720776649,381:   5177  75  71
1720776649,381:     99  75  71
1720776649,381:  -3519  75  71
1720776649,381:   -976  75  71
1720776649,381:   4266  75  71
1720776649,381:   5314  75  71
1720776649,381:    939  75  71
1720776649,381:  -2786  75  71
1720776649,381:   -718  75  71
1720776649,412:   4340  75  71
1720776649,412:   5531  75  71
1720776649,412:   1026  75  71
1720776649,412:  -3342  75  71
1720776649,412:  -1864  75  71
1720776649,412:   3381  75  71
1720776649,412:   5433  75  71
1720776649,412:   1671  75  71
1720776649,412:  -2700  75  71
1720776649,412:  -1648  75  71
1720776649,412:   3431  75  71
1720776649,412:   5703  75  71
1720776649,412:   1946  75  71
1720776649,412:  -3015  75  71
1720776649,412:  -2658  75  71
1720776649,443:   2449  75  71
1720776649,443:   5547  75  71
1720776649,443:   2651  75  71
1720776649,443:  -2179  75  71
1720776649,443:  -2272  75  71
1720776649,443:   2522  75  71
1720776649,443:   5738  75  71
1720776649,443:   2899  75  71
1720776649,475:  -2436  75  71
1720776649,475:  -3262  75  71
1720776649,475:   1412  75  71
1720776649,475:   5365  75  71
1720776649,475:   3450  75  71
1720776649,475:  -1608  75  71
1720776649,475:  -2835  75  71
1720776649,475:   1469  75  71
1720776649,475:   5510  75  71
1720776649,475:   3763  75  71
1720776649,475:  -1656  75  71
1720776649,475:  -3612  75  71
1720776649,475:    399  75  71
1720776649,475:   5011  75  71
1720776649,475:   4178  75  71
1720776649,475:   -840  75  71
1720776649,475:  -3131  75  71
1720776649,475:    458  75  71
1720776649,475:   5092  75  71
1720776649,475:   4479  75  71
1720776649,475:   -790  75  71
1720776649,475:  -3807  75  71
1720776649,506:   -663  75  71
1720776649,506:   4401  75  71
1720776649,506:   4737  75  71
1720776649,506:     68  75  71
1720776649,506:  -3136  75  71
1720776649,506:   -446  75  71
1720776649,506:   4507  75  71
1720776649,506:   5015  75  71
1720776649,506:    173  75  71
1720776649,506:  -3689  75  71
1720776649,506:  -1509  75  71
1720776649,506:   3734  75  71
1720776649,506:   5112  75  71
1720776649,506:    901  75  71
1720776649,506:  -3100  75  71
1720776649,538:  -1394  75  71
1720776649,538:   3712  75  71
1720776649,538:   5327  75  71
1720776649,538:   1093  75  71
1720776649,538:  -3500  75  71
1720776649,538:  -2420  75  71
1720776649,538:   2798  75  71
1720776649,538:   5248  75  71
1720776649,538:   1807  75  71
1720776649,538:  -2724  75  71
1720776649,538:  -2078  75  71
1720776649,538:   2881  75  71
1720776649,538:   5445  75  71
1720776649,538:   1970  75  71
1720776649,538:  -3124  75  71
1720776649,569:  -3139  75  71
1720776649,569:   1858  75  71
1720776649,569:   5250  75  71
1720776649,569:   2650  75  71
1720776649,569:  -2292  75  71
1720776649,569:  -2758  75  71
1720776649,569:   1920  75  71
1720776649,569:   5456  75  71
1720776649,569:   2991  75  71
1720776649,569:  -2376  75  71
1720776649,569:  -3553  75  71
1720776649,569:    951  75  71
1720776649,569:   5166  75  71
1720776649,569:   3631  75  71
1720776649,569:  -1395  75  71
1720776649,599:  -2947  75  71
1720776649,599:   1106  75  71
1720776649,599:   5205  75  71
1720776649,599:   3555  75  71
1720776649,599:  -2153  75  71
1720776649,599:  -4760  75  71
1720776649,599:  -1257  75  71
1720776649,599:   3340  75  71
1720776649,599:   2805  75  71
1720776649,599:  -2015  75  71
1720776649,599:  -4247  75  71
1720776649,599:   -281  75  71
1720776649,599:   5407  75  71
1720776649,599:   6363  75  71
1720776649,599:   2684  75  71
1720776649,631:   1044  75  71
1720776649,631:   5602  75  71
1720776649,631:  12383  75  71
1720776649,631:  14583  75  71
1720776649,631:  11453  75  71
1720776649,631:   9188  75  71
1720776649,631:  12392  75  71
1720776649,631:  17681  75  71
1720776649,631:  18228  75  71
1720776649,631:  12736  75  71
1720776649,631:   7341  75  71
1720776649,631:   7417  75  71
1720776649,631:  10479  75  71
1720776649,631:   9811  75  71
1720776649,631:   3600  75  71
1720776649,631:  -2397  75  71
1720776649,631:  -2422  75  71
1720776649,631:   1517  75  71
1720776649,631:   2512  75  71
1720776649,631:  -2083  75  71
1720776649,631:  -6954  75  71
1720776649,631:  -5897  75  71
1720776649,631:   -273  75  71
1720776649,663:   2783  85  74
1720776649,663:   -379  85  74
1720776649,663:  -5211  85  74
1720776649,663:  -5108  85  74
1720776649,663:   -383  85  74
1720776649,663:   2356  85  74
1720776649,663:   -943  85  74
1720776649,663:  -6250  85  74
1720776649,663:  -6690  85  74
1720776649,663:  -1827  85  74
1720776649,663:   1909  85  74
1720776649,663:   -225  85  74
1720776649,663:  -5024  85  74
1720776649,663:  -5638  85  74
1720776649,663:   -984  85  74
1720776649,695:   2830  85  74
1720776649,695:    637  85  74
1720776649,695:  -4856  85  74
1720776649,695:  -6444  85  74
1720776649,695:  -2107  85  74
1720776649,695:   2458  85  74
1720776649,695:   1446  85  74
1720776649,695:  -3413  85  74
1720776649,695:  -5191  85  74
1720776649,695:  -1254  85  74
1720776649,695:   3202  85  74
1720776649,695:   2165  85  74
1720776649,695:  -3183  85  74
1720776649,695:  -5780  85  74
1720776649,695:  -2211  85  74
1720776649,726:   2818  85  74
1720776649,726:   2816  85  74
1720776649,726:  -1932  85  74
1720776649,726:  -4727  85  74
1720776649,726:  -1578  85  74
1720776649,726:   3378  85  74
1720776649,726:   3508  85  74
1720776649,726:  -1529  85  74
1720776649,726:  -5079  85  74
1720776649,726:  -2447  85  74
1720776649,726:   2863  85  74
1720776649,726:   3927  85  74
1720776649,726:   -438  85  74
1720776649,726:  -4078  85  74
1720776649,726:  -1843  85  74
1720776649,757:   3365  85  74
1720776649,757:   4592  85  74
1720776649,757:     24  85  74
1720776649,757:  -4365  85  74
1720776649,757:  -2786  85  74
1720776649,757:   2616  85  74
1720776649,757:   4751  85  74
1720776649,757:    961  85  74
1720776649,757:  -3432  85  74
1720776649,757:  -2293  85  74
1720776649,757:   2937  85  74
1720776649,757:   5297  85  74
1720776649,757:   1516  85  74
1720776649,757:  -3475  85  74
1720776649,757:  -3059  85  74
1720776649,788:   2153  85  74
1720776649,788:   5293  85  74
1720776649,788:   2342  85  74
1720776649,788:  -2539  85  74
1720776649,788:  -2579  85  74
1720776649,788:   2339  85  74
1720776649,788:   5642  85  74
1720776649,788:   2805  85  74
1720776649,788:  -2545  85  74
1720776649,788:  -3338  85  74
1720776649,788:   1389  85  74
1720776649,788:   5366  85  74
1720776649,788:   3449  85  74
1720776649,788:  -1577  85  74
1720776649,788:  -2725  85  74
1720776649,821:   1622  85  74
1720776649,821:   5610  85  74
1720776649,821:   3768  85  74
1720776649,821:  -1664  85  74
1720776649,821:  -3522  85  74
1720776649,821:    586  85  74
1720776649,821:   5192  85  74
1720776649,821:   4280  85  74
1720776649,821:   -758  85  74
1720776649,821:  -2950  85  74
1720776649,821:    766  85  74
1720776649,821:   5433  85  74
1720776649,821:   4755  85  74
1720776649,821:   -554  85  74
1720776649,821:  -3501  85  74
1720776649,821:   -247  85  74
1720776649,821:   4852  85  74
1720776649,821:   5134  85  74
1720776649,821:    427  85  74
1720776649,851:  -2711  85  74
1720776649,851:     94  85  74
1720776649,851:   5095  85  74
1720776649,851:   5551  85  74
1720776649,851:    650  85  74
1720776649,851:  -3174  85  74
1720776649,851:   -884  85  74
1720776649,851:   4461  85  74
1720776649,851:   5892  85  74
1720776649,851:   1728  85  74
1720776649,851:  -2191  85  74
1720776649,851:   -403  85  74
1720776649,851:   4737  85  74
1720776649,851:   6362  85  74
1720776649,851:   2176  85  74
1720776649,883:  -2309  85  74
1720776649,883:  -1147  85  74
1720776649,883:   4057  85  74
1720776649,883:   6432  85  74
1720776649,883:   2947  85  74
1720776649,883:  -1556  85  74
1720776649,883:   -877  85  74
1720776649,883:   4070  85  74
1720776649,915:   6614  85  74
1720776649,915:   3175  85  74
1720776649,915:  -1830  85  74
1720776649,915:  -1807  85  74
1720776649,915:   3124  85  74
1720776649,915:   6435  85  74
1720776649,915:   3860  85  74
1720776649,915:   -968  85  74
1720776649,915:  -1390  85  74
1720776649,915:   3155  85  74
1720776649,915:   6491  85  74
1720776649,915:   3952  85  74
1720776649,915:  -1309  85  74
1720776649,915:  -2370  85  74
1720776649,915:   2089  85  74
1720776649,915:   6139  85  74
1720776649,915:   4509  85  74
1720776649,915:   -449  85  74
1720776649,915:  -1885  85  74
1720776649,915:   2189  85  74
1720776649,915:   6285  85  74
1720776649,915:   4805  85  74
1720776649,946:   -489  85  74
1720776649,946:  -2625  85  74
1720776649,946:   1135  85  74
1720776649,946:   5740  85  74
1720776649,946:   5141  85  74
1720776649,946:    294  85  74
1720776649,946:  -2095  85  74
1720776649,946:   1282  85  74
1720776649,946:   5867  85  74
1720776649,946:   5407  85  74
1720776649,946:    259  85  74
1720776649,946:  -2837  85  74
1720776649,946:    152  85  74
1720776649,946:   5212  85  74
1720776649,946:   5709  85  74
1720776649,978:   1147  85  74
1720776649,978:  -2148  85  74
1720776649,978:    402  85  74
1720776649,978:   5402  85  74
1720776649,978:   6134  85  74
1720776649,978:   1436  85  74
1720776649,978:  -2537  85  74
1720776649,978:   -567  85  74
1720776649,978:   4644  85  74
1720776649,978:   6212  85  74
1720776649,978:   2174  85  74
1720776649,978:  -1873  85  74
1720776649,978:   -321  85  74
1720776649,978:   4773  85  74
1720776649,978:   6558  85  74
1720776650,010:   2446  85  74
1720776650,010:  -2255  85  74
1720776650,010:  -1377  85  74
1720776650,010:   3817  85  74
1720776650,010:   6458  85  74
1720776650,010:   3177  85  74
1720776650,010:  -1419  85  74
1720776650,010:   -939  85  74
1720776650,010:   4031  85  74
1720776650,010:   6819  85  74
1720776650,010:   3527  85  74
1720776650,010:  -1653  85  74
1720776650,010:  -1908  85  74
1720776650,010:   2986  85  74
1720776650,010:   6501  85  74
1720776650,010:   4054  85  74
1720776650,010:   -910  85  74
1720776650,010:  -1499  85  74
1720776650,010:   3188  85  74
1720776650,010:   6916  85  74
1720776650,010:   4616  85  74
1720776650,010:   -816  85  74
1720776650,010:  -2209  85  74
1720776650,041:   2181  85  74
1720776650,041:   6465  85  74
1720776650,041:   5016  85  74
1720776650,041:    -62  85  74
1720776650,041:  -1713  85  74
1720776650,041:   2416  85  74
1720776650,041:   6807  85  74
1720776650,041:   5480  85  74
1720776650,041:    -42  85  74
1720776650,041:  -2511  85  74
1720776650,041:   1257  85  74
1720776650,041:   6209  85  74
1720776650,041:   5841  85  74
1720776650,041:    811  85  74
1720776650,041:  -1897  85  74
1720776650,073:   1538  85  74
1720776650,073:   6589  85  74
1720776650,073:   6497  85  74
1720776650,073:   1209  85  74
1720776650,073:  -2328  85  74
1720776650,073:    485  85  74
1720776650,073:   5787  85  74
1720776650,073:   6532  85  74
1720776650,073:   1830  85  74
1720776650,073:  -1817  85  74
1720776650,073:    683  85  74
1720776650,073:   6042  85  74
1720776650,073:   7071  85  74
1720776650,073:   2179  85  74
1720776650,073:  -2282  85  74
1720776650,105:   -485  85  74
1720776650,105:   5079  85  74
1720776650,105:   7058  85  74
1720776650,105:   2968  85  74
1720776650,105:  -1489  85  74
1720776650,105:   -111  85  74
1720776650,105:   5316  85  74
1720776650,105:   7522  85  74
1720776650,105:   3371  85  74
1720776650,105:  -1797  85  74
1720776650,105:  -1224  85  74
1720776650,105:   4171  85  74
1720776650,105:   7180  85  74
1720776650,105:   3887  85  74
1720776650,105:  -1124  85  74
1720776650,137:   -905  85  74
1720776650,137:   4337  85  74
1720776650,137:   7606  85  74
1720776650,137:   4408  85  74
1720776650,137:  -1172  85  74
1720776650,137:  -1784  85  74
1720776650,137:   3262  85  74
1720776650,137:   7222  85  74
1720776650,137:   4914  85  74
1720776650,137:   -408  85  74
1720776650,137:  -1381  85  74
1720776650,137:   3395  85  74
1720776650,137:   7529  85  74
1720776650,137:   5371  85  74
1720776650,137:   -434  85  74
1720776650,169:  -2254  85  74
1720776650,169:   2220  85  74
1720776650,169:   7015  85  74
1720776650,169:   5871  85  74
1720776650,169:    510  85  74
1720776650,169:  -1636  85  74
1720776650,169:   2438  85  74
1720776650,169:   7282  85  74
1720776650,169:   6330  85  74
1720776650,169:    621  85  74
1720776650,169:  -2342  85  74
1720776650,169:   1284  85  74
1720776650,169:   6629  85  74
1720776650,169:   6688  85  74
1720776650,169:   1573  85  74
1720776650,200:  -1621  85  74
1720776650,200:   1543  85  74
1720776650,200:   6824  85  74
1720776650,200:   7090  85  74
1720776650,200:   1755  85  74
1720776650,200:  -2204  85  74
1720776650,200:    369  85  74
1720776650,200:   5954  85  74
1720776650,200:   7177  85  74
1720776650,200:   2569  85  74
1720776650,200:  -1481  85  74
1720776650,200:    620  85  74
1720776650,200:   6027  85  74
1720776650,200:   7416  85  74
1720776650,200:   2685  85  74
1720776650,232:  -2031  85  74
1720776650,232:   -549  85  74
1720776650,232:   5053  85  74
1720776650,232:   7354  85  74
1720776650,232:   3419  85  74
1720776650,232:  -1291  85  74
1720776650,232:   -261  85  74
1720776650,232:   5162  85  74
1720776650,232:   7703  85  74
1720776650,232:   3791  85  74
1720776650,232:  -1533  85  74
1720776650,232:  -1257  85  74
1720776650,232:   4153  85  74
1720776650,232:   7532  85  74
1720776650,232:   4525  85  74
1720776650,263:   -651  85  74
1720776650,263:   -851  85  74
1720776650,263:   4222  85  74
1720776650,263:   7732  85  74
1720776650,263:   4821  85  74
1720776650,263:   -837  85  74
1720776650,263:  -1766  85  74
1720776650,263:   3209  85  74
1720776650,263:   7518  85  74
1720776650,263:   5573  85  74
1720776650,263:    122  85  74
1720776650,263:  -1432  85  74
1720776650,263:   2855  85  74
1720776650,263:   6932  85  74
1720776650,263:   4894  85  74
1720776650,263:  -1094  85  74
1720776650,263:  -3410  85  74
1720776650,263:    780  85  74
1720776650,263:   5908  85  74
1720776650,263:   5533  85  74
1720776650,263:    907  85  74
1720776650,263:   -617  85  74
1720776650,294:   4429  92  80
1720776650,294:  10918  92  80
1720776650,294:  11949  92  80
1720776650,294:   7857  92  80
1720776650,294:   5894  92  80
1720776650,294:  10380  92  80
1720776650,294:  16940  92  80
1720776650,294:  18338  92  80
1720776650,294:  13908  92  80
1720776650,294:  10324  92  80
1720776650,294:  12456  92  80
1720776650,294:  16735  92  80
1720776650,294:  16098  92  80
1720776650,294:   9405  92  80
1720776650,294:   3292  92  80
1720776650,326:   3409  92  80
1720776650,326:   7051  92  80
1720776650,326:   7100  92  80
1720776650,326:   1600  92  80
1720776650,326:  -3523  92  80
1720776650,326:  -2449  92  80
1720776650,326:   2561  92  80
1720776650,326:   4304  92  80
1720776650,326:    127  92  80
1720776650,326:  -4430  92  80
1720776650,326:  -3129  92  80
1720776650,326:   2418  92  80
1720776650,326:   4947  92  80
1720776650,326:   1160  92  80
1720776650,326:  -3845  92  80
1720776650,357:  -3355  92  80
1720776650,357:   1794  92  80
1720776650,357:   4490  92  80
1720776650,357:    798  92  80
1720776650,357:  -4626  92  80
1720776650,357:  -4615  92  80
1720776650,357:    840  92  80
1720776650,357:   4686  92  80
1720776650,357:   2137  92  80
1720776650,357:  -3028  92  80
1720776650,357:  -3540  92  80
1720776650,357:   1411  92  80
1720776650,357:   5192  92  80
1720776650,357:   2602  92  80
1720776650,357:  -3110  92  80
1720776650,388:  -4366  92  80
1720776650,388:    506  92  80
1720776650,388:   5165  92  80
1720776650,388:   3692  92  80
1720776650,388:  -1618  92  80
1720776650,388:  -3320  92  80
1720776650,388:   1015  92  80
1720776650,388:   5593  92  80
1720776650,388:   4200  92  80
1720776650,388:  -1500  92  80
1720776650,388:  -3946  92  80
1720776650,388:    114  92  80
1720776650,388:   5373  92  80
1720776650,388:   5081  92  80
1720776650,388:    -67  92  80
1720776650,419:  -2859  92  80
1720776650,419:    612  92  80
1720776650,419:   5692  92  80
1720776650,419:   5526  92  80
1720776650,419:    152  92  80
1720776650,419:  -3312  92  80
1720776650,419:   -275  92  80
1720776650,419:   5230  92  80
1720776650,419:   6021  92  80
1720776650,419:   1257  92  80
1720776650,419:  -2433  92  80
1720776650,419:     68  92  80
1720776650,419:   5414  92  80
1720776650,419:   6421  92  80
1720776650,419:   1572  92  80
1720776650,451:  -2752  92  80
1720776650,451:   -826  92  80
1720776650,451:   4767  92  80
1720776650,451:   6723  92  80
1720776650,451:   2663  92  80
1720776650,451:  -1727  92  80
1720776650,451:   -390  92  80
1720776650,451:   4825  92  80
1720776650,451:   6825  92  80
1720776650,451:   2697  92  80
1720776650,451:  -2223  92  80
1720776650,451:  -1428  92  80
1720776650,451:   3995  92  80
1720776650,451:   6949  92  80
1720776650,451:   3717  92  80
1720776650,482:  -1138  92  80
1720776650,482:   -913  92  80
1720776650,482:   4070  92  80
1720776650,482:   7051  92  80
1720776650,482:   3840  92  80
1720776650,482:  -1486  92  80
1720776650,482:  -1903  92  80
1720776650,482:   3058  92  80
1720776650,482:   6836  92  80
1720776650,482:   4561  92  80
1720776650,482:   -516  92  80
1720776650,482:  -1372  92  80
1720776650,482:   3171  92  80
1720776650,482:   6949  92  80
1720776650,482:   4709  92  80
1720776650,482:   -828  92  80
1720776650,482:  -2390  92  80
1720776650,482:   2024  92  80
1720776650,482:   6589  92  80
1720776650,482:   5411  92  80
1720776650,482:    293  92  80
1720776650,482:  -1664  92  80
1720776650,482:   2246  92  80
1720776650,513:   6739  92  80
1720776650,513:   5666  92  80
1720776650,513:    198  92  80
1720776650,513:  -2498  92  80
1720776650,513:   1062  92  80
1720776650,513:   6100  92  80
1720776650,513:   6014  92  80
1720776650,513:   1085  92  80
1720776650,513:  -1865  92  80
1720776650,513:   1257  92  80
1720776650,513:   6271  92  80
1720776650,513:   6410  92  80
1720776650,513:   1279  92  80
1720776650,513:  -2385  92  80
1720776650,513:    220  92  80
1720776650,545:   5577  92  80
1720776650,545:   6644  92  80
1720776650,545:   2160  92  80
1720776650,545:  -1653  92  80
1720776650,545:    491  92  80
1720776650,545:   5731  92  80
1720776650,545:   7019  92  80
1720776650,545:   2432  92  80
1720776650,545:  -2046  92  80
1720776650,545:   -522  92  80
1720776650,545:   4911  92  80
1720776650,545:   7093  92  80
1720776650,545:   3271  92  80
1720776650,545:  -1232  92  80
1720776650,545:   -187  92  80
1720776650,576:   5025  92  80
1720776650,576:   7390  92  80
1720776650,576:   3551  92  80
1720776650,576:  -1561  92  80
1720776650,576:  -1227  92  80
1720776650,576:   3994  92  80
1720776650,576:   7170  92  80
1720776650,576:   4180  92  80
1720776650,576:   -804  92  80
1720776650,576:   -899  92  80
1720776650,576:   4074  92  80
1720776650,576:   7447  92  80
1720776650,576:   4564  92  80
1720776650,576:   -933  92  80
1720776650,576:  -1809  92  80
1720776650,608:   2984  92  80
1720776650,608:   7060  92  80
1720776650,608:   5105  92  80
1720776650,608:    -77  92  80
1720776650,608:  -1293  92  80
1720776650,608:   3195  92  80
1720776650,608:   7380  92  80
1720776650,608:   5535  92  80
1720776650,608:   -130  92  80
1720776650,608:  -2189  92  80
1720776650,608:   1947  92  80
1720776650,608:   6682  92  80
1720776650,608:   5735  92  80
1720776650,608:    479  92  80
1720776650,608:  -1815  92  80
1720776650,640:   2121  92  80
1720776650,640:   7122  92  80
1720776650,640:   6498  92  80
1720776650,640:    884  92  80
1720776650,640:  -2350  92  80
1720776650,640:    964  92  80
1720776650,640:   6298  92  80
1720776650,640:   6549  92  80
1720776650,640:   1466  92  80
1720776650,640:  -1925  92  80
1720776650,640:   1163  92  80
1720776650,640:   6723  92  80
1720776650,640:   7358  92  80
1720776650,640:   2016  92  80
1720776650,640:  -2335  92  80
1720776650,671:    -34  92  80
1720776650,671:   5721  92  80
1720776650,671:   7259  92  80
1720776650,671:   2603  92  80
1720776650,671:  -1809  92  80
1720776650,671:    224  92  80
1720776650,671:   6178  92  80
1720776650,671:   8234  92  80
1720776650,671:   3549  92  80
1720776650,671:  -1775  92  80
1720776650,671:   -799  92  80
1720776650,671:   4959  92  80
1720776650,671:   7736  92  80
1720776650,671:   3849  92  80
1720776650,671:  -1363  92  80
1720776650,701:   -682  92  80
1720776650,701:   5109  92  80
1720776650,701:   8372  92  80
1720776650,701:   4694  92  80
1720776650,701:  -1128  92  80
1720776650,701:  -1410  92  80
1720776650,701:   4079  92  80
1720776650,701:   7994  92  80
1720776650,701:   5205  92  80
1720776650,701:   -391  92  80
1720776650,701:  -1090  92  80
1720776650,701:   4094  92  80
1720776650,701:   8231  92  80
1720776650,701:   5714  92  80
1720776650,701:   -226  92  80
1720776650,701:  -1697  92  80
1720776650,701:   3164  92  80
1720776650,701:   7864  92  80
1720776650,701:   6249  92  80
1720776650,701:    641  92  80
1720776650,701:  -1255  92  80
1720776650,701:   3127  92  80
1720776650,732:   7843  92  80
1720776650,732:   6453  92  80
1720776650,732:    602  92  80
1720776650,732:  -1967  92  80
1720776650,732:   2095  92  80
1720776650,732:   7379  92  80
1720776650,732:   7005  92  80
1720776650,732:   1720  92  80
1720776650,732:  -1098  92  80
1720776650,732:   2480  92  80
1720776650,732:   7604  92  80
1720776650,732:   7230  92  80
1720776650,732:   1494  92  80
1720776650,732:  -2177  92  80
1720776650,732:    956  92  80
1720776650,764:   6667  92  80
1720776650,764:   7480  92  80
1720776650,764:   2524  92  80
1720776650,764:  -1302  92  80
1720776650,764:   1310  92  80
1720776650,764:   6863  92  80
1720776650,764:   7865  92  80
1720776650,764:   2746  92  80
1720776650,795:  -1807  92  80
1720776650,795:    186  92  80
1720776650,795:   5998  92  80
1720776650,795:   7966  92  80
1720776650,795:   3614  92  80
1720776650,795:  -1046  92  80
1720776650,795:    382  92  80
1720776650,795:   5955  92  80
1720776650,795:   8149  92  80
1720776650,795:   3820  92  80
1720776650,795:  -1433  92  80
1720776650,795:   -702  92  80
1720776650,795:   4943  92  80
1720776650,795:   8045  92  80
1720776650,795:   4653  92  80
1720776650,795:   -451  92  80
1720776650,795:   -196  92  80
1720776650,795:   5093  92  80
1720776650,795:   8271  92  80
1720776650,795:   4880  92  80
1720776650,795:   -779  92  80
1720776650,795:  -1254  92  80
1720776650,827:   3989  92  80
1720776650,827:   8001  92  80
1720776650,827:   5594  92  80
1720776650,827:    190  92  80
1720776650,827:   -752  92  80
1720776650,827:   4066  92  80
1720776650,827:   8144  92  80
1720776650,827:   5881  92  80
1720776650,827:     81  92  80
1720776650,827:  -1600  92  80
1720776650,827:   2976  92  80
1720776650,827:   7707  92  80
1720776650,827:   6416  92  80
1720776650,827:   1014  92  80
1720776650,858:  -1035  92  80
1720776650,858:   3088  92  80
1720776650,858:   7802  92  80
1720776650,858:   6652  92  80
1720776650,858:    904  92  80
1720776650,858:  -1886  92  80
1720776650,858:   1920  92  80
1720776650,858:   7250  92  80
1720776650,858:   7138  92  80
1720776650,858:   1922  92  80
1720776650,858:  -1166  92  80
1720776650,858:   2181  92  80
1720776650,858:   7504  92  80
1720776650,858:   7624  92  80
1720776650,889:   2138  92  80
1720776650,889:  -1785  92  80
1720776650,889:    957  92  80
1720776650,889:   6592  92  80
1720776650,889:   7623  92  80
1720776650,889:   2757  92  80
1720776650,889:  -1289  92  80
1720776650,889:   1153  92  80
1720776650,889:   6940  92  80
1720776650,889:   8373  92  80
1720776650,889:   3338  92  80
1720776650,889:  -1652  92  80
1720776650,889:   -105  92  80
1720776650,889:   5768  92  80
1720776650,889:   8154  92  80
1720776650,921:   3974  92  80
1720776650,921:   -992  92  80
1720776650,921:    126  92  80
1720776650,921:   5897  92  80
1720776650,921:   8629  92  80
1720776650,921:   4537  92  80
1720776650,921:  -1068  92  80
1720776650,921:   -801  92  80
1720776650,921:   4822  92  80
1720776650,921:   8238  92  80
1720776650,921:   4899  92  80
1720776650,921:   -646  92  80
1720776650,921:   -804  92  80
1720776650,921:   4692  92  80
1720776650,921:   8517  92  80
1720776650,921:   5469  92  80
1720776650,921:   -547  92  80
1720776650,921:  -1592  92  80
1720776650,921:   3578  92  80
1720776650,921:   8018  92  80
1720776650,921:   5877  92  80
1720776650,921:    162  92  80
1720776650,953:  -1265  92  80
1720776650,953:   3563  92  80
1720776650,953:   8128  92  80
1720776650,953:   6159  92  80
1720776650,953:     11  92  80
1720776650,953:  -2232  92  80
1720776650,953:   2322  92  80
1720776650,953:   7620  92  80
1720776650,953:   6772  92  80
1720776650,953:   1168  92  80
1720776650,953:  -1349  92  80
1720776650,953:   2817  92  80
1720776650,953:   8132  92  80
1720776650,953:   7358  92  80
1720776650,953:   1141  92  80
1720776650,983:  -2623  92  80
1720776650,983:    629  92  80
1720776650,983:   6133  92  80
1720776650,983:   6278  92  80
1720776650,983:    718  92  80
1720776650,983:  -3059  92  80
1720776650,983:    199  92  80
1720776650,983:   6448  92  80
1720776650,983:   7882  92  80
1720776650,983:   3253  92  80
1720776650,983:   -200  92  80
1720776650,983:   3576  92  80
1720776650,983:  11354  92  80
1720776650,983:  14919  92  80
1720776650,983:  11724  92  80
1720776651,015:   8115  83  84
1720776651,015:  10677  83  84
1720776651,015:  17258  83  84
1720776651,015:  19991  83  84
1720776651,015:  15635  83  84
1720776651,015:   9981  83  84
1720776651,015:  10028  83  84
1720776651,015:  14526  83  84
1720776651,015:  15860  83  84
1720776651,015:  10297  83  84
1720776651,015:   3144  83  84
1720776651,015:   1772  83  84
1720776651,015:   5645  83  84
1720776651,015:   7288  83  84
1720776651,015:   2342  83  84
1720776651,047:  -4354  83  84
1720776651,047:  -5054  83  84
1720776651,047:    442  83  84
1720776651,047:   4628  83  84
1720776651,047:   2181  83  84
1720776651,047:  -3110  83  84
1720776651,047:  -3620  83  84
1720776651,047:   1551  83  84
1720776651,047:   5406  83  84
1720776651,047:   2453  83  84
1720776651,047:  -3793  83  84
1720776651,047:  -5271  83  84
1720776651,047:   -264  83  84
1720776651,047:   4460  83  84
1720776651,047:   2691  83  84
1720776651,078:  -2990  83  84
1720776651,078:  -4641  83  84
1720776651,078:    199  83  84
1720776651,078:   5233  83  84
1720776651,078:   3825  83  84
1720776651,078:  -2205  83  84
1720776651,078:  -4808  83  84
1720776651,078:   -588  83  84
1720776651,078:   4815  83  84
1720776651,078:   4350  83  84
1720776651,078:  -1092  83  84
1720776651,078:  -3838  83  84
1720776651,078:    104  83  84
1720776651,078:   5616  83  84
1720776651,078:   5369  83  84
1720776651,109:   -480  83  84
1720776651,109:  -4234  83  84
1720776651,109:   -996  83  84
1720776651,109:   4886  83  84
1720776651,109:   5738  83  84
1720776651,109:    707  83  84
1720776651,109:  -3096  83  84
1720776651,109:   -256  83  84
1720776651,109:   5560  83  84
1720776651,109:   6626  83  84
1720776651,109:   1368  83  84
1720776651,109:  -3298  83  84
1720776651,109:  -1232  83  84
1720776651,109:   4736  83  84
1720776651,109:   6740  83  84
1720776651,109:   2290  83  84
1720776651,109:  -2394  83  84
1720776651,109:   -782  83  84
1720776651,109:   5048  83  84
1720776651,109:   7337  83  84
1720776651,109:   2908  83  84
1720776651,109:  -2420  83  84
1720776651,109:  -1569  83  84
1720776651,141:   4275  83  84
1720776651,141:   7418  83  84
1720776651,141:   3858  83  84
1720776651,141:  -1405  83  84
1720776651,141:  -1096  83  84
1720776651,141:   4378  83  84
1720776651,141:   7621  83  84
1720776651,141:   4082  83  84
1720776651,141:  -1742  83  84
1720776651,141:  -2180  83  84
1720776651,141:   3258  83  84
1720776651,141:   7378  83  84
1720776651,141:   4856  83  84
1720776651,141:   -715  83  84
1720776651,141:  -1625  83  84
1720776651,172:   3416  83  84
1720776651,172:   7645  83  84
1720776651,172:   5270  83  84
1720776651,172:   -766  83  84
1720776651,172:  -2509  83  84
1720776651,172:   2255  83  84
1720776651,172:   7187  83  84
1720776651,172:   5861  83  84
1720776651,172:    253  83  84
1720776651,172:  -1874  83  84
1720776651,172:   2436  83  84
1720776651,172:   7398  83  84
1720776651,172:   6267  83  84
1720776651,172:    303  83  84
1720776651,172:  -2651  83  84
1720776651,203:   1239  83  84
1720776651,203:   6781  83  84
1720776651,203:   6739  83  84
1720776651,203:   1385  83  84
1720776651,203:  -1849  83  84
1720776651,203:   1517  83  84
1720776651,203:   6951  83  84
1720776651,203:   7089  83  84
1720776651,203:   1487  83  84
1720776651,203:  -2520  83  84
1720776651,203:    311  83  84
1720776651,203:   6151  83  84
1720776651,203:   7321  83  84
1720776651,203:   2430  83  84
1720776651,203:  -1748  83  84
1720776651,235:    556  83  84
1720776651,235:   6258  83  84
1720776651,235:   7683  83  84
1720776651,235:   2712  83  84
1720776651,235:  -2178  83  84
1720776651,235:   -580  83  84
1720776651,235:   5279  83  84
1720776651,235:   7666  83  84
1720776651,235:   3581  83  84
1720776651,235:  -1264  83  84
1720776651,235:   -165  83  84
1720776651,235:   5407  83  84
1720776651,235:   7955  83  84
1720776651,235:   3900  83  84
1720776651,235:  -1480  83  84
1720776651,266:  -1052  83  84
1720776651,266:   4557  83  84
1720776651,266:   7943  83  84
1720776651,266:   4753  83  84
1720776651,266:   -551  83  84
1720776651,266:   -682  83  84
1720776651,266:   4522  83  84
1720776651,266:   8033  83  84
1720776651,266:   5002  83  84
1720776651,266:   -691  83  84
1720776651,266:  -1490  83  84
1720776651,266:   3607  83  84
1720776651,266:   7859  83  84
1720776651,266:   5752  83  84
1720776651,266:    285  83  84
1720776651,296:  -1039  83  84
1720776651,296:   3538  83  84
1720776651,296:   7761  83  84
1720776651,296:   5755  83  84
1720776651,296:   -100  83  84
1720776651,296:  -2125  83  84
1720776651,296:   2291  83  84
1720776651,296:   7327  83  84
1720776651,296:   6494  83  84
1720776651,296:   1173  83  84
1720776651,296:  -1254  83  84
1720776651,296:   2530  83  84
1720776651,296:   7359  83  84
1720776651,296:   6606  83  84
1720776651,296:   1007  83  84
1720776651,327:  -2085  83  84
1720776651,327:   1358  83  84
1720776651,327:   6718  83  84
1720776651,327:   6957  83  84
1720776651,327:   1903  83  84
1720776651,327:  -1505  83  84
1720776651,327:   1367  83  84
1720776651,327:   6585  83  84
1720776651,327:   7041  83  84
1720776651,327:   1871  83  84
1720776651,327:  -2167  83  84
1720776651,327:    220  83  84
1720776651,327:   5816  83  84
1720776651,327:   7306  83  84
1720776651,327:   2927  83  84
1720776651,358:  -1207  83  84
1720776651,358:    594  83  84
1720776651,358:   5837  83  84
1720776651,358:   7345  83  84
1720776651,358:   2783  83  84
1720776651,358:  -2003  83  84
1720776651,358:   -773  83  84
1720776651,358:   4741  83  84
1720776651,358:   7277  83  84
1720776651,358:   3634  83  84
1720776651,358:  -1103  83  84
1720776651,358:   -419  83  84
1720776651,358:   4738  83  84
1720776651,358:   7389  83  84
1720776651,358:   3794  83  84
1720776651,390:  -1420  83  84
1720776651,390:  -1364  83  84
1720776651,390:   3818  83  84
1720776651,390:   7300  83  84
1720776651,390:   4619  83  84
1720776651,390:   -427  83  84
1720776651,390:   -884  83  84
1720776651,390:   3850  83  84
1720776651,390:   7347  83  84
1720776651,390:   4731  83  84
1720776651,390:   -747  83  84
1720776651,390:  -1898  83  84
1720776651,390:   2690  83  84
1720776651,390:   6916  83  84
1720776651,390:   5295  83  84
1720776651,422:    188  83  84
1720776651,422:  -1371  83  84
1720776651,422:   2699  83  84
1720776651,422:   6819  83  84
1720776651,422:   5276  83  84
1720776651,422:   -130  83  84
1720776651,422:  -2276  83  84
1720776651,422:   1629  83  84
1720776651,422:   6399  83  84
1720776651,422:   5811  83  84
1720776651,422:    820  83  84
1720776651,422:  -1696  83  84
1720776651,422:   1711  83  84
1720776651,422:   6433  83  84
1720776651,422:   6046  83  84
1720776651,454:    828  83  84
1720776651,454:  -2389  83  84
1720776651,454:    569  83  84
1720776651,454:   5720  83  84
1720776651,454:   6319  83  84
1720776651,454:   1752  83  84
1720776651,454:  -1658  83  84
1720776651,454:    756  83  84
1720776651,454:   5680  83  84
1720776651,454:   6400  83  84
1720776651,454:   1706  83  84
1720776651,454:  -2273  83  84
1720776651,454:   -290  83  84
1720776651,454:   5002  83  84
1720776651,454:   6697  83  84
1720776651,454:   2741  83  84
1720776651,454:  -1350  83  84
1720776651,454:     56  83  84
1720776651,454:   5031  83  84
1720776651,454:   6834  83  84
1720776651,454:   2845  83  84
1720776651,454:  -1770  83  84
1720776651,484:   -935  83  84
1720776651,484:   4152  83  84
1720776651,484:   6767  83  84
1720776651,484:   3554  83  84
1720776651,484:  -1021  83  84
1720776651,484:   -676  83  84
1720776651,484:   4106  83  84
1720776651,484:   6859  83  84
1720776651,484:   3724  83  84
1720776651,484:  -1293  83  84
1720776651,484:  -1575  83  84
1720776651,484:   3181  83  84
1720776651,484:   6706  83  84
1720776651,484:   4484  83  84
1720776651,484:   -295  83  84
1720776651,515:  -1029  83  84
1720776651,515:   3249  83  84
1720776651,515:   6692  83  84
1720776651,515:   4469  83  84
1720776651,515:   -720  83  84
1720776651,515:  -2082  83  84
1720776651,515:   2061  83  84
1720776651,515:   6147  83  84
1720776651,515:   4805  83  84
1720776651,515:    -45  83  84
1720776651,515:  -1740  83  84
1720776651,515:   2024  83  84
1720776651,515:   6150  83  84
1720776651,515:   4997  83  84
1720776651,515:    -92  83  84
1720776651,547:  -2389  83  84
1720776651,547:   1118  83  84
1720776651,547:   5778  83  84
1720776651,547:   5531  83  84
1720776651,547:    909  83  84
1720776651,547:  -1675  83  84
1720776651,547:   1330  83  84
1720776651,547:   5818  83  84
1720776651,547:   5627  83  84
1720776651,547:    731  83  84
1720776651,547:  -2480  83  84
1720776651,547:    197  83  84
1720776651,547:   5194  83  84
1720776651,547:   5995  83  84
1720776651,547:   1728  83  84
1720776651,578:  -1669  83  84
1720776651,578:    507  83  84
1720776651,578:   5332  83  84
1720776651,578:   6292  83  84
1720776651,578:   1889  83  84
1720776651,578:  -2161  83  84
1720776651,578:   -581  83  84
1720776651,578:   4411  83  84
1720776651,578:   6202  83  84
1720776651,578:   2532  83  84
1720776651,578:  -1497  83  84
1720776651,578:   -309  83  84
1720776651,578:   4519  83  84
1720776651,578:   6497  83  84
1720776651,578:   2811  83  84
1720776651,608:  -1763  83  84
1720776651,608:  -1191  83  84
1720776651,608:   3697  83  84
1720776651,608:   6447  83  84
1720776651,608:   3536  83  84
1720776651,608:   -964  83  84
1720776651,608:   -860  83  84
1720776651,608:   3687  83  84
1720776651,608:   6495  83  84
1720776651,608:   3596  83  84
1720776651,608:  -1370  83  84
1720776651,608:  -1896  83  84
1720776651,608:   2596  83  84
1720776651,608:   6107  83  84
1720776651,608:   4056  83  84
1720776651,638:   -657  83  84
1720776651,638:  -1511  83  84
1720776651,638:   2708  83  84
1720776651,638:   6341  83  84
1720776651,638:   4417  83  84
1720776651,638:   -692  83  84
1720776651,638:  -2258  83  84
1720776651,638:   1701  83  84
1720776651,638:   5886  83  84
1720776651,638:   4817  83  84
1720776651,638:     65  83  84
1720776651,638:  -1820  83  84
1720776651,638:   1743  83  84
1720776651,638:   5924  83  84
1720776651,638:   5005  83  84
1720776651,669:     -9  83  84
1720776651,669:  -2516  83  84
1720776651,669:    766  83  84
1720776651,669:   5482  83  84
1720776651,669:   5510  83  84
1720776651,669:   1039  83  84
1720776651,669:  -1682  83  84
1720776651,669:   1134  83  84
1720776651,669:   5657  83  84
1720776651,669:   5643  83  84
1720776651,669:    683  83  84
1720776651,669:  -3042  83  84
1720776651,669:  -1053  83  84
1720776651,669:   3521  83  84
1720776651,669:   4319  83  84
1720776651,700:    244  83  84
1720776651,700:  -2968  83  84
1720776651,700:   -460  83  84
1720776651,700:   5152  83  84
1720776651,700:   7413  83  84
1720776651,700:   4569  83  84
1720776651,700:   2058  83  84
1720776651,700:   5172  83  84
1720776651,700:  11837  83  84
1720776651,700:  15388  83  84
1720776651,700:  13291  83  84
1720776651,700:  10416  83  84
1720776651,700:  12369  83  84
1720776651,700:  17689  83  84
1720776651,700:  19819  83  84
1720776651,700:  15738  83  84
1720776651,700:  10098  83  84
1720776651,700:   9073  83  84
1720776651,700:  12032  83  84
1720776651,700:  12597  83  84
1720776651,700:   7311  83  84
1720776651,700:    493  83  84
1720776651,700:  -1273  83  84
1720776651,732:   2023  87  87
1720776651,732:   3950  87  87
1720776651,732:    218  87  87
1720776651,732:  -5505  87  87
1720776651,732:  -6305  87  87
1720776651,732:  -1381  87  87
1720776651,732:   2908  87  87
1720776651,732:   1338  87  87
1720776651,732:  -3462  87  87
1720776651,732:  -4632  87  87
1720776651,732:   -486  87  87
1720776651,732:   3304  87  87
1720776651,732:   1365  87  87
1720776651,732:  -4153  87  87
1720776651,732:  -6199  87  87
1720776651,763:  -2305  87  87
1720776651,763:   2248  87  87
1720776651,763:   1539  87  87
1720776651,763:  -3181  87  87
1720776651,763:  -5153  87  87
1720776651,763:  -1358  87  87
1720776651,763:   3371  87  87
1720776651,763:   2826  87  87
1720776651,763:  -2368  87  87
1720776651,763:  -5357  87  87
1720776651,763:  -2266  87  87
1720776651,763:   2735  87  87
1720776651,763:   3129  87  87
1720776651,763:  -1321  87  87
1720776651,763:  -4242  87  87
1720776651,794:  -1351  87  87
1720776651,794:   3676  87  87
1720776651,794:   4199  87  87
1720776651,794:   -603  87  87
1720776651,794:  -4410  87  87
1720776651,794:  -2204  87  87
1720776651,794:   3074  87  87
1720776651,794:   4589  87  87
1720776651,794:    641  87  87
1720776651,794:  -3117  87  87
1720776651,794:  -1362  87  87
1720776651,794:   3615  87  87
1720776651,794:   5144  87  87
1720776651,794:   1037  87  87
1720776651,794:  -3308  87  87
1720776651,825:  -2101  87  87
1720776651,825:   3043  87  87
1720776651,825:   5404  87  87
1720776651,825:   2052  87  87
1720776651,825:  -2276  87  87
1720776651,825:  -1566  87  87
1720776651,825:   3241  87  87
1720776651,825:   5655  87  87
1720776651,825:   2272  87  87
1720776651,825:  -2553  87  87
1720776651,825:  -2410  87  87
1720776651,825:   2504  87  87
1720776651,825:   5785  87  87
1720776651,825:   3307  87  87
1720776651,825:  -1337  87  87
1720776651,825:  -1650  87  87
1720776651,825:   2864  87  87
1720776651,825:   6121  87  87
1720776651,825:   3583  87  87
1720776651,856:  -1608  87  87
1720776651,856:  -2619  87  87
1720776651,856:   1828  87  87
1720776651,856:   5849  87  87
1720776651,856:   4232  87  87
1720776651,856:   -638  87  87
1720776651,856:  -1900  87  87
1720776651,856:   2410  87  87
1720776651,887:   6682  87  87
1720776651,887:   5183  87  87
1720776651,887:   -324  87  87
1720776651,887:  -2659  87  87
1720776651,887:   1120  87  87
1720776651,887:   5898  87  87
1720776651,887:   5361  87  87
1720776651,887:    353  87  87
1720776651,887:  -2182  87  87
1720776651,887:   1375  87  87
1720776651,887:   6399  87  87
1720776651,887:   6233  87  87
1720776651,887:    967  87  87
1720776651,887:  -2452  87  87
1720776651,887:    430  87  87
1720776651,919:   5678  87  87
1720776651,919:   6317  87  87
1720776651,919:   1575  87  87
1720776651,919:  -2026  87  87
1720776651,919:    522  87  87
1720776651,919:   5893  87  87
1720776651,919:   6978  87  87
1720776651,919:   2245  87  87
1720776651,919:  -2038  87  87
1720776651,919:   -224  87  87
1720776651,919:   5152  87  87
1720776651,919:   6914  87  87
1720776651,919:   2778  87  87
1720776651,919:  -1547  87  87
1720776651,919:    -44  87  87
1720776651,951:   5379  87  87
1720776651,951:   7538  87  87
1720776651,951:   3451  87  87
1720776651,951:  -1541  87  87
1720776651,951:   -851  87  87
1720776651,951:   4504  87  87
1720776651,951:   7432  87  87
1720776651,951:   4184  87  87
1720776651,951:   -658  87  87
1720776651,951:   -334  87  87
1720776651,951:   4820  87  87
1720776651,951:   7928  87  87
1720776651,951:   4701  87  87
1720776651,951:   -726  87  87
1720776651,951:  -1166  87  87
1720776651,951:   3904  87  87
1720776651,951:   7784  87  87
1720776651,951:   5451  87  87
1720776651,951:    239  87  87
1720776651,951:   -579  87  87
1720776651,951:   4260  87  87
1720776651,951:   8361  87  87
1720776651,983:   6167  87  87
1720776651,983:    396  87  87
1720776651,983:  -1371  87  87
1720776651,983:   3073  87  87
1720776651,983:   7746  87  87
1720776651,983:   6483  87  87
1720776651,983:   1113  87  87
1720776651,983:   -925  87  87
1720776651,983:   3266  87  87
1720776651,983:   8127  87  87
1720776651,983:   7075  87  87
1720776651,983:   1240  87  87
1720776651,983:  -1779  87  87
1720776651,983:   1844  87  87
1720776651,983:   7168  87  87
1720776652,014:   7143  87  87
1720776652,014:   1948  87  87
1720776652,014:  -1208  87  87
1720776652,014:   2103  87  87
1720776652,014:   7508  87  87
1720776652,014:   7759  87  87
1720776652,014:   2315  87  87
1720776652,014:  -1691  87  87
1720776652,014:    934  87  87
1720776652,014:   6541  87  87
1720776652,014:   7638  87  87
1720776652,014:   2827  87  87
1720776652,014:  -1277  87  87
1720776652,014:   1007  87  87
1720776652,014:   6666  87  87
1720776652,045:   8129  87  87
1720776652,045:   3261  87  87
1720776652,045:  -1582  87  87
1720776652,045:    -65  87  87
1720776652,045:   5641  87  87
1720776652,045:   7925  87  87
1720776652,045:   3838  87  87
1720776652,045:   -949  87  87
1720776652,045:    201  87  87
1720776652,045:   5777  87  87
1720776652,045:   8259  87  87
1720776652,045:   4072  87  87
1720776652,045:  -1460  87  87
1720776652,045:  -1128  87  87
1720776652,045:   4464  87  87
1720776652,077:   7864  87  87
1720776652,077:   4661  87  87
1720776652,077:   -652  87  87
1720776652,077:   -702  87  87
1720776652,077:   4666  87  87
1720776652,077:   8282  87  87
1720776652,077:   5168  87  87
1720776652,077:   -731  87  87
1720776652,077:  -1657  87  87
1720776652,077:   3475  87  87
1720776652,077:   7799  87  87
1720776652,077:   5653  87  87
1720776652,077:     90  87  87
1720776652,077:  -1182  87  87
1720776652,077:   3651  87  87
1720776652,108:   8133  87  87
1720776652,108:   6156  87  87
1720776652,108:    127  87  87
1720776652,108:  -2023  87  87
1720776652,108:   2447  87  87
1720776652,108:   7572  87  87
1720776652,108:   6675  87  87
1720776652,108:   1185  87  87
1720776652,108:  -1269  87  87
1720776652,108:   2717  87  87
1720776652,108:   7764  87  87
1720776652,108:   6993  87  87
1720776652,108:   1173  87  87
1720776652,108:  -2052  87  87
1720776652,108:   1513  87  87
1720776652,140:   7086  87  87
1720776652,140:   7373  87  87
1720776652,140:   2192  87  87
1720776652,140:  -1283  87  87
1720776652,140:   1719  87  87
1720776652,140:   7119  87  87
1720776652,140:   7586  87  87
1720776652,140:   2259  87  87
1720776652,140:  -1876  87  87
1720776652,140:    608  87  87
1720776652,140:   6351  87  87
1720776652,140:   7827  87  87
1720776652,140:   3279  87  87
1720776652,140:   -971  87  87
1720776652,140:    899  87  87
1720776652,172:   6268  87  87
1720776652,172:   7780  87  87
1720776652,172:   3111  87  87
1720776652,172:  -1706  87  87
1720776652,172:   -332  87  87
1720776652,172:   5368  87  87
1720776652,172:   7950  87  87
1720776652,172:   4217  87  87
1720776652,172:   -577  87  87
1720776652,172:    166  87  87
1720776652,172:   5376  87  87
1720776652,172:   7936  87  87
1720776652,172:   4155  87  87
1720776652,172:  -1153  87  87
1720776652,172:  -1008  87  87
1720776652,172:   4321  87  87
1720776652,172:   7834  87  87
1720776652,172:   5071  87  87
1720776652,172:    -34  87  87
1720776652,172:   -455  87  87
1720776652,172:   4309  87  87
1720776652,172:   7728  87  87
1720776652,172:   4988  87  87
1720776652,204:   -498  87  87
1720776652,204:  -1495  87  87
1720776652,204:   3256  87  87
1720776652,204:   7495  87  87
1720776652,204:   5779  87  87
1720776652,204:    652  87  87
1720776652,204:   -781  87  87
1720776652,204:   3419  87  87
1720776652,204:   7496  87  87
1720776652,204:   5766  87  87
1720776652,204:    239  87  87
1720776652,204:  -1836  87  87
1720776652,204:   2222  87  87
1720776652,204:   7022  87  87
1720776652,204:   6314  87  87
1720776652,235:   1227  87  87
1720776652,235:  -1217  87  87
1720776652,235:   2342  87  87
1720776652,235:   7087  87  87
1720776652,235:   6549  87  87
1720776652,235:   1191  87  87
1720776652,235:  -1970  87  87
1720776652,235:   1181  87  87
1720776652,235:   6415  87  87
1720776652,235:   6880  87  87
1720776652,235:   2135  87  87
1720776652,235:  -1251  87  87
1720776652,235:   1385  87  87
1720776652,235:   6459  87  87
1720776652,235:   7071  87  87
1720776652,266:   2136  87  87
1720776652,266:  -1926  87  87
1720776652,266:    195  87  87
1720776652,266:   5602  87  87
1720776652,266:   7170  87  87
1720776652,266:   2956  87  87
1720776652,266:  -1210  87  87
1720776652,266:    407  87  87
1720776652,266:   5622  87  87
1720776652,266:   7407  87  87
1720776652,266:   3191  87  87
1720776652,266:  -1544  87  87
1720776652,266:   -561  87  87
1720776652,266:   4735  87  87
1720776652,266:   7333  87  87
1720776652,297:   3907  87  87
1720776652,297:   -771  87  87
1720776652,297:   -247  87  87
1720776652,297:   4776  87  87
1720776652,297:   7522  87  87
1720776652,297:   4135  87  87
1720776652,297:  -1055  87  87
1720776652,297:  -1209  87  87
1720776652,297:   3788  87  87
1720776652,297:   7326  87  87
1720776652,297:   4845  87  87
1720776652,297:   -138  87  87
1720776652,297:   -740  87  87
1720776652,297:   3865  87  87
1720776652,297:   7446  87  87
1720776652,327:   5039  87  87
1720776652,327:   -376  87  87
1720776652,327:  -1677  87  87
1720776652,327:   2760  87  87
1720776652,327:   7019  87  87
1720776652,327:   5547  87  87
1720776652,327:    484  87  87
1720776652,327:  -1180  87  87
1720776652,327:   2853  87  87
1720776652,327:   7137  87  87
1720776652,327:   5819  87  87
1720776652,327:    426  87  87
1720776652,327:  -1954  87  87
1720776652,327:   1741  87  87
1720776652,327:   6549  87  87
1720776652,358:   6167  87  87
1720776652,358:   1268  87  87
1720776652,358:  -1372  87  87
1720776652,358:   1889  87  87
1720776652,358:   6639  87  87
1720776652,358:   6409  87  87
1720776652,358:   1250  87  87
1720776652,358:  -2092  87  87
1720776652,358:    744  87  87
1720776652,358:   5939  87  87
1720776652,358:   6681  87  87
1720776652,358:   2144  87  87
1720776652,358:  -1392  87  87
1720776652,358:    952  87  87
1720776652,358:   6022  87  87
1720776652,389:   6979  87  87
1720776652,389:   2343  87  87
1720776652,389:  -1833  87  87
1720776652,389:    -60  87  87
1720776652,389:   5226  87  87
1720776652,389:   7059  87  87
1720776652,389:   3142  87  87
1720776652,389:  -1095  87  87
1720776652,389:    179  87  87
1720776652,389:   5220  87  87
1720776652,389:   7197  87  87
1720776652,389:   3240  87  87
1720776652,389:  -1562  87  87
1720776652,389:   -899  87  87
1720776652,389:   4259  87  87
1720776652,389:   7099  87  87
1720776652,389:   3997  87  87
1720776652,389:   -693  87  87
1720776652,389:   -491  87  87
1720776652,389:   4329  87  87
1720776652,389:   7232  87  87
1720776652,389:   4128  87  87
1720776652,420:  -1069  87  87
1720776652,420:  -1527  87  87
1720776652,420:   3258  87  87
1720776652,420:   6918  87  87
1720776652,420:   4689  87  87
1720776652,420:   -289  87  87
1720776652,420:  -1155  87  87
1720776652,420:   3295  87  87
1720776652,420:   7062  87  87
1720776652,420:   4964  87  87
1720776652,420:   -420  87  87
1720776652,420:  -2001  87  87
1720776652,420:   2238  87  87
1720776652,420:   6658  87  87
1720776652,420:   5524  87  87
1720776652,452:    571  87  87
1720776652,452:  -1299  87  87
1720776652,452:   2538  87  87
1720776652,452:   6881  87  87
1720776652,452:   5698  87  87
1720776652,452:    124  87  87
1720776652,452:  -2821  87  87
1720776652,452:    319  87  87
1720776652,452:   4926  87  87
1720776652,452:   4601  87  87
1720776652,452:   -324  87  87
1720776652,452:  -3121  87  87
1720776652,452:    281  87  87
1720776652,452:   5839  87  87
1720776652,452:   6954  87  87
1720776652,482:   3197  87  87
1720776652,482:   1075  87  87
1720776652,482:   5211  87  87
1720776652,482:  12079  87  87
1720776652,482:  14716  87  87
1720776652,482:  11808  87  87
1720776652,482:   9365  87  87
1720776652,482:  12496  87  87
1720776652,514:  18348  77  85
1720776652,514:  19959  77  85
1720776652,514:  15386  77  85
1720776652,514:  10416  77  85
1720776652,514:  10787  77  85
1720776652,514:  14463  77  85
1720776652,514:  14533  77  85
1720776652,514:   8506  77  85
1720776652,514:   1838  77  85
1720776652,514:    832  77  85
1720776652,514:   4221  77  85
1720776652,514:   5144  77  85
1720776652,514:    331  77  85
1720776652,514:  -5347  77  85
1720776652,514:  -5265  77  85
1720776652,514:      2  77  85
1720776652,514:   3511  77  85
1720776652,514:   1012  77  85
1720776652,514:  -3629  77  85
1720776652,514:  -3783  77  85
1720776652,514:    805  77  85
1720776652,514:   3799  77  85
1720776652,546:    809  77  85
1720776652,546:  -4618  77  85
1720776652,546:  -5541  77  85
1720776652,546:   -992  77  85
1720776652,546:   2881  77  85
1720776652,546:   1041  77  85
1720776652,546:  -3774  77  85
1720776652,546:  -4721  77  85
1720776652,546:   -246  77  85
1720776652,546:   3825  77  85
1720776652,546:   2062  77  85
1720776652,546:  -3344  77  85
1720776652,546:  -5275  77  85
1720776652,546:  -1270  77  85
1720776652,546:   3334  77  85
1720776652,576:   2586  77  85
1720776652,576:  -2206  77  85
1720776652,576:  -4220  77  85
1720776652,576:   -442  77  85
1720776652,576:   4237  77  85
1720776652,576:   3616  77  85
1720776652,576:  -1598  77  85
1720776652,576:  -4497  77  85
1720776652,576:  -1265  77  85
1720776652,576:   3799  77  85
1720776652,576:   4116  77  85
1720776652,576:   -487  77  85
1720776652,576:  -3541  77  85
1720776652,576:   -716  77  85
1720776652,576:   4286  77  85
1720776652,607:   4798  77  85
1720776652,607:     -1  77  85
1720776652,607:  -3790  77  85
1720776652,607:  -1574  77  85
1720776652,607:   3674  77  85
1720776652,607:   5123  77  85
1720776652,607:   1100  77  85
1720776652,607:  -2723  77  85
1720776652,607:  -1022  77  85
1720776652,607:   3914  77  85
1720776652,607:   5435  77  85
1720776652,607:   1360  77  85
1720776652,607:  -2955  77  85
1720776652,607:  -1765  77  85
1720776652,607:   3322  77  85
1720776652,639:   5633  77  85
1720776652,639:   2265  77  85
1720776652,639:  -2089  77  85
1720776652,639:  -1457  77  85
1720776652,639:   3259  77  85
1720776652,639:   5663  77  85
1720776652,639:   2384  77  85
1720776652,639:  -2319  77  85
1720776652,639:  -2167  77  85
1720776652,639:   2656  77  85
1720776652,639:   5881  77  85
1720776652,639:   3459  77  85
1720776652,639:  -1133  77  85
1720776652,639:  -1570  77  85
1720776652,639:   2675  77  85
1720776652,670:   5772  77  85
1720776652,670:   3366  77  85
1720776652,670:  -1550  77  85
1720776652,670:  -2467  77  85
1720776652,670:   1830  77  85
1720776652,670:   5746  77  85
1720776652,670:   4314  77  85
1720776652,670:   -296  77  85
1720776652,670:  -1690  77  85
1720776652,670:   2018  77  85
1720776652,670:   5753  77  85
1720776652,670:   4348  77  85
1720776652,670:   -559  77  85
1720776652,670:  -2502  77  85
1720776652,670:   1065  77  85
1720776652,702:   5447  77  85
1720776652,702:   5000  77  85
1720776652,702:    538  77  85
1720776652,702:  -1758  77  85
1720776652,702:   1240  77  85
1720776652,702:   5417  77  85
1720776652,702:   5041  77  85
1720776652,702:    379  77  85
1720776652,702:  -2441  77  85
1720776652,702:    310  77  85
1720776652,702:   5016  77  85
1720776652,702:   5605  77  85
1720776652,702:   1522  77  85
1720776652,702:  -1549  77  85
1720776652,702:    594  77  85
1720776652,702:   4978  77  85
1720776652,702:   5598  77  85
1720776652,702:   1388  77  85
1720776652,702:  -2151  77  85
1720776652,702:   -332  77  85
1720776652,702:   4423  77  85
1720776652,702:   5919  77  85
1720776652,702:   2357  77  85
1720776652,733:  -1270  77  85
1720776652,733:     86  77  85
1720776652,733:   4630  77  85
1720776652,733:   6257  77  85
1720776652,733:   2643  77  85
1720776652,733:  -1504  77  85
1720776652,733:   -687  77  85
1720776652,733:   3970  77  85
1720776652,733:   6350  77  85
1720776652,733:   3451  77  85
1720776652,733:   -620  77  85
1720776652,733:   -161  77  85
1720776652,733:   4291  77  85
1720776652,733:   6771  77  85
1720776652,733:   3801  77  85
1720776652,764:   -852  77  85
1720776652,764:  -1068  77  85
1720776652,764:   3361  77  85
1720776652,764:   6561  77  85
1720776652,764:   4374  77  85
1720776652,764:   -137  77  85
1720776652,764:   -748  77  85
1720776652,764:   3426  77  85
1720776652,764:   6806  77  85
1720776652,764:   4787  77  85
1720776652,764:   -113  77  85
1720776652,764:  -1443  77  85
1720776652,764:   2448  77  85
1720776652,764:   6322  77  85
1720776652,764:   5053  77  85
1720776652,795:    416  77  85
1720776652,795:  -1238  77  85
1720776652,795:   2367  77  85
1720776652,795:   6398  77  85
1720776652,795:   5402  77  85
1720776652,795:    528  77  85
1720776652,795:  -1813  77  85
1720776652,795:   1389  77  85
1720776652,795:   5806  77  85
1720776652,795:   5614  77  85
1720776652,795:   1189  77  85
1720776652,795:  -1371  77  85
1720776652,795:   1458  77  85
1720776652,795:   5848  77  85
1720776652,795:   5835  77  85
1720776652,827:   1211  77  85
1720776652,827:  -1980  77  85
1720776652,827:    417  77  85
1720776652,827:   5136  77  85
1720776652,827:   5946  77  85
1720776652,827:   1880  77  85
1720776652,827:  -1445  77  85
1720776652,827:    574  77  85
1720776652,827:   5243  77  85
1720776652,827:   6287  77  85
1720776652,827:   2136  77  85
1720776652,827:  -1804  77  85
1720776652,827:   -383  77  85
1720776652,827:   4394  77  85
1720776652,827:   6174  77  85
1720776652,859:   2678  77  85
1720776652,859:  -1253  77  85
1720776652,859:   -187  77  85
1720776652,859:   4453  77  85
1720776652,859:   6405  77  85
1720776652,859:   2864  77  85
1720776652,859:  -1629  77  85
1720776652,859:  -1181  77  85
1720776652,859:   3507  77  85
1720776652,859:   6206  77  85
1720776652,859:   3416  77  85
1720776652,859:   -985  77  85
1720776652,859:   -930  77  85
1720776652,859:   3538  77  85
1720776652,859:   6430  77  85
1720776652,859:   3764  77  85
1720776652,859:  -1052  77  85
1720776652,859:  -1656  77  85
1720776652,859:   2657  77  85
1720776652,859:   6130  77  85
1720776652,891:   4222  77  85
1720776652,891:   -375  77  85
1720776652,891:  -1310  77  85
1720776652,891:   2733  77  85
1720776652,891:   6319  77  85
1720776652,891:   4530  77  85
1720776652,891:   -462  77  85
1720776652,922:  -2098  77  85
1720776652,922:   1699  77  85
1720776652,922:   5855  77  85
1720776652,922:   4942  77  85
1720776652,922:    343  77  85
1720776652,922:  -1571  77  85
1720776652,922:   1864  77  85
1720776652,922:   6031  77  85
1720776652,922:   5263  77  85
1720776652,922:    368  77  85
1720776652,922:  -2228  77  85
1720776652,922:    833  77  85
1720776652,922:   5415  77  85
1720776652,922:   5478  77  85
1720776652,922:   1066  77  85
1720776652,922:  -1720  77  85
1720776652,922:    998  77  85
1720776652,922:   5592  77  85
1720776652,922:   5869  77  85
1720776652,922:   1256  77  85
1720776652,922:  -2218  77  85
1720776652,922:    -26  77  85
1720776652,922:   4821  77  85
1720776652,954:   5906  77  85
1720776652,954:   1901  77  85
1720776652,954:  -1637  77  85
1720776652,954:    220  77  85
1720776652,954:   5018  77  85
1720776652,954:   6304  77  85
1720776652,954:   2156  77  85
1720776652,954:  -2063  77  85
1720776652,954:   -831  77  85
1720776652,954:   4117  77  85
1720776652,954:   6231  77  85
1720776652,954:   2815  77  85
1720776652,954:  -1381  77  85
1720776652,954:   -535  77  85
1720776652,954:   4278  77  85
1720776652,985:   6631  77  85
1720776652,985:   3249  77  85
1720776652,985:  -1514  77  85
1720776652,985:  -1401  77  85
1720776652,985:   3309  77  85
1720776652,985:   6324  77  85
1720776652,985:   3706  77  85
1720776652,985:   -899  77  85
1720776652,985:  -1130  77  85
1720776652,985:   3377  77  85
1720776652,985:   6582  77  85
1720776652,985:   4076  77  85
1720776652,985:   -982  77  85
1720776652,985:  -1929  77  85
1720776652,985:   2392  77  85
1720776653,016:   6215  77  85
1720776653,016:   4550  77  85
1720776653,016:   -217  77  85
1720776653,016:  -1488  77  85
1720776653,016:   2520  77  85
1720776653,016:   6425  77  85
1720776653,016:   4898  77  85
1720776653,016:   -232  77  85
1720776653,016:  -2209  77  85
1720776653,016:   1503  77  85
1720776653,016:   5930  77  85
1720776653,016:   5273  77  85
1720776653,016:    571  77  85
1720776653,016:  -1657  77  85
1720776653,016:   1702  77  85
1720776653,016:   6150  77  85
1720776653,016:   5668  77  85
1720776653,016:    694  77  85
1720776653,016:  -2243  77  85
1720776653,016:    665  77  85
1720776653,016:   5469  77  85
1720776653,016:   5832  77  85
1720776653,048:   1412  77  85
1720776653,048:  -1664  77  85
1720776653,048:    882  77  85
1720776653,048:   5633  77  85
1720776653,048:   6161  77  85
1720776653,048:   1531  77  85
1720776653,048:  -2227  77  85
1720776653,048:   -198  77  85
1720776653,048:   4843  77  85
1720776653,048:   6245  77  85
1720776653,048:   2269  77  85
1720776653,048:  -1578  77  85
1720776653,048:     30  77  85
1720776653,048:   4957  77  85
1720776653,048:   6580  77  85
1720776653,079:   2541  77  85
1720776653,079:  -1943  77  85
1720776653,079:   -998  77  85
1720776653,079:   4011  77  85
1720776653,079:   6435  77  85
1720776653,079:   3148  77  85
1720776653,079:  -1304  77  85
1720776653,079:   -791  77  85
1720776653,079:   4022  77  85
1720776653,079:   6677  77  85
1720776653,079:   3484  77  85
1720776653,079:  -1468  77  85
1720776653,079:  -1656  77  85
1720776653,079:   3076  77  85
1720776653,079:   6455  77  85
1720776653,111:   4119  77  85
1720776653,111:   -620  77  85
1720776653,111:  -1207  77  85
1720776653,111:   3180  77  85
1720776653,111:   6619  77  85
1720776653,111:   4359  77  85
1720776653,111:   -798  77  85
1720776653,111:  -2055  77  85
1720776653,111:   2174  77  85
1720776653,111:   6261  77  85
1720776653,111:   4877  77  85
1720776653,111:     35  77  85
1720776653,111:  -1577  77  85
1720776653,111:   2278  77  85
1720776653,111:   6418  77  85
1720776653,143:   5207  77  85
1720776653,143:     56  77  85
1720776653,143:  -2259  77  85
1720776653,143:   1247  77  85
1720776653,143:   5863  77  85
1720776653,143:   5531  77  85
1720776653,143:    850  77  85
1720776653,143:  -1700  77  85
1720776653,143:   1423  77  85
1720776653,143:   6019  77  85
1720776653,143:   5858  77  85
1720776653,143:    924  77  85
1720776653,143:  -2333  77  85
1720776653,143:    320  77  85
1720776653,143:   5287  77  85
1720776653,174:   6027  77  85
1720776653,174:   1695  77  85
1720776653,174:  -1729  77  85
1720776653,174:    467  77  85
1720776653,174:   5308  77  85
1720776653,174:   6252  77  85
1720776653,174:   1841  77  85
1720776653,174:  -2162  77  85
1720776653,174:   -502  77  85
1720776653,174:   4519  77  85
1720776653,174:   6238  77  85
1720776653,174:   2451  77  85
1720776653,174:  -1636  77  85
1720776653,174:   -417  77  85
1720776653,174:   4452  77  85
1720776653,205:   6392  77  85
1720776653,205:   2614  77  85
1720776653,205:  -2013  77  85
1720776653,205:  -1408  77  85
1720776653,205:   3545  77  85
1720776653,205:   6312  77  85
1720776653,205:   3360  77  85
1720776653,205:  -1169  77  85
1720776653,205:  -1032  77  85
1720776653,205:   3574  77  85
1720776653,205:   6408  77  85
1720776653,205:   3503  77  85
1720776653,205:  -1450  77  85
1720776653,205:  -1905  77  85
1720776653,205:   2683  77  85
1720776653,236:   6264  77  85
1720776653,236:   4237  77  85
1720776653,236:   -492  77  85
1720776653,236:  -1415  77  85
1720776653,236:   2654  77  85
1720776653,236:   6046  77  85
1720776653,236:   3833  77  85
1720776653,236:  -1546  77  85
1720776653,236:  -3333  77  85
1720776653,236:    460  77  85
1720776653,236:   4568  77  85
1720776653,236:   3589  77  85
1720776653,236:   -819  77  85
1720776653,236:  -2067  77  85
1720776653,236:   2425  77  85
1720776653,268:   7796  77  85
1720776653,268:   8273  77  85
1720776653,268:   4766  77  85
1720776653,268:   3770  77  85
1720776653,268:   8496  77  85
1720776653,268:  14575  77  85
1720776653,268:  15850  77  85
1720776653,268:  12391  77  85
1720776653,268:  10270  77  85
1720776653,268:  13179  77  85
1720776653,268:  17339  77  85
1720776653,268:  16619  77  85
1720776653,268:  10661  77  85
1720776653,268:   5620  77  85
1720776653,268:   5970  77  85
1720776653,268:   8710  77  85
1720776653,268:   7692  77  85
1720776653,268:   1971  77  85
1720776653,268:  -2742  77  85
1720776653,268:  -1713  77  85
1720776653,268:   2368  77  85
1720776653,268:   3098  77  85
1720776653,268:  -1191  77  85
1720776653,299:  -5059  78  81
1720776653,299:  -3308  78  81
1720776653,299:   1898  78  81
1720776653,299:   3892  78  81
1720776653,299:    231  78  81
1720776653,299:  -4085  78  81
1720776653,299:  -3299  78  81
1720776653,299:   1291  78  81
1720776653,299:   3254  78  81
1720776653,299:   -415  78  81
1720776653,299:  -5123  78  81
1720776653,299:  -4721  78  81
1720776653,299:    186  78  81
1720776653,299:   3165  78  81
1720776653,299:    487  78  81
1720776653,330:  -3940  78  81
1720776653,330:  -3809  78  81
1720776653,330:    913  78  81
1720776653,330:   3983  78  81
1720776653,330:   1176  78  81
1720776653,330:  -3977  78  81
1720776653,330:  -4690  78  81
1720776653,330:    -65  78  81
1720776653,330:   3840  78  81
1720776653,330:   2073  78  81
1720776653,330:  -2669  78  81
1720776653,330:  -3630  78  81
1720776653,330:    742  78  81
1720776653,330:   4713  78  81
1720776653,330:   2918  78  81
1720776653,362:  -2458  78  81
1720776653,362:  -4328  78  81
1720776653,362:   -264  78  81
1720776653,362:   4355  78  81
1720776653,362:   3539  78  81
1720776653,362:  -1386  78  81
1720776653,362:  -3494  78  81
1720776653,362:    318  78  81
1720776653,362:   5111  78  81
1720776653,362:   4536  78  81
1720776653,362:   -764  78  81
1720776653,362:  -3773  78  81
1720776653,362:   -556  78  81
1720776653,362:   4536  78  81
1720776653,362:   4768  78  81
1720776653,392:    -41  78  81
1720776653,392:  -3204  78  81
1720776653,392:   -220  78  81
1720776653,392:   5070  78  81
1720776653,392:   5671  78  81
1720776653,392:    646  78  81
1720776653,392:  -3408  78  81
1720776653,392:  -1196  78  81
1720776653,392:   4224  78  81
1720776653,392:   5668  78  81
1720776653,392:   1348  78  81
1720776653,392:  -2712  78  81
1720776653,392:   -813  78  81
1720776653,392:   4605  78  81
1720776653,392:   6336  78  81
1720776653,423:   1924  78  81
1720776653,423:  -2877  78  81
1720776653,423:  -1758  78  81
1720776653,423:   3663  78  81
1720776653,423:   6157  78  81
1720776653,423:   2489  78  81
1720776653,423:  -2247  78  81
1720776653,423:  -1456  78  81
1720776653,423:   3924  78  81
1720776653,423:   6774  78  81
1720776653,423:   3209  78  81
1720776653,423:  -2140  78  81
1720776653,423:  -2207  78  81
1720776653,423:   2979  78  81
1720776653,423:   6506  78  81
1720776653,454:   3788  78  81
1720776653,454:  -1336  78  81
1720776653,454:  -1733  78  81
1720776653,454:   3247  78  81
1720776653,454:   6963  78  81
1720776653,454:   4327  78  81
1720776653,454:  -1358  78  81
1720776653,454:  -2603  78  81
1720776653,454:   2160  78  81
1720776653,454:   6604  78  81
1720776653,454:   4949  78  81
1720776653,454:   -396  78  81
1720776653,454:  -2013  78  81
1720776653,454:   2409  78  81
1720776653,454:   6996  78  81
1720776653,485:   5558  78  81
1720776653,485:   -189  78  81
1720776653,485:  -2681  78  81
1720776653,485:   1283  78  81
1720776653,485:   6360  78  81
1720776653,485:   5848  78  81
1720776653,485:    556  78  81
1720776653,485:  -2225  78  81
1720776653,485:   1378  78  81
1720776653,485:   6574  78  81
1720776653,485:   6382  78  81
1720776653,485:    855  78  81
1720776653,485:  -2746  78  81
1720776653,485:    282  78  81
1720776653,485:   5861  78  81
1720776653,517:   6672  78  81
1720776653,517:   1827  78  81
1720776653,517:  -1930  78  81
1720776653,517:    635  78  81
1720776653,517:   6110  78  81
1720776653,517:   7131  78  81
1720776653,517:   2123  78  81
1720776653,517:  -2372  78  81
1720776653,517:   -449  78  81
1720776653,517:   5245  78  81
1720776653,517:   7174  78  81
1720776653,517:   2889  78  81
1720776653,517:  -1675  78  81
1720776653,517:   -179  78  81
1720776653,517:   5451  78  81
1720776653,517:   7710  78  81
1720776653,517:   3423  78  81
1720776653,517:  -1860  78  81
1720776653,517:  -1210  78  81
1720776653,517:   4364  78  81
1720776653,517:   7428  78  81
1720776653,517:   3989  78  81
1720776653,548:  -1174  78  81
1720776653,548:   -909  78  81
1720776653,548:   4501  78  81
1720776653,548:   7818  78  81
1720776653,548:   4437  78  81
1720776653,548:  -1359  78  81
1720776653,548:  -1962  78  81
1720776653,548:   3288  78  81
1720776653,579:   7379  78  81
1720776653,579:   4952  78  81
1720776653,579:   -574  78  81
1720776653,579:  -1552  78  81
1720776653,579:   3451  78  81
1720776653,579:   7789  78  81
1720776653,579:   5598  78  81
1720776653,579:   -377  78  81
1720776653,579:  -2257  78  81
1720776653,579:   2309  78  81
1720776653,579:   7154  78  81
1720776653,579:   5866  78  81
1720776653,579:    297  78  81
1720776653,579:  -1872  78  81
1720776653,579:   2385  78  81
1720776653,611:   7380  78  81
1720776653,611:   6354  78  81
1720776653,611:    452  78  81
1720776653,611:  -2563  78  81
1720776653,611:   1214  78  81
1720776653,611:   6708  78  81
1720776653,611:   6711  78  81
1720776653,611:   1405  78  81
1720776653,611:  -1863  78  81
1720776653,611:   1436  78  81
1720776653,611:   6872  78  81
1720776653,611:   7105  78  81
1720776653,611:   1587  78  81
1720776653,611:  -2453  78  81
1720776653,611:    257  78  81
1720776653,642:   6024  78  81
1720776653,642:   7241  78  81
1720776653,642:   2440  78  81
1720776653,642:  -1734  78  81
1720776653,642:    490  78  81
1720776653,642:   6134  78  81
1720776653,642:   7602  78  81
1720776653,642:   2715  78  81
1720776653,642:  -2170  78  81
1720776653,642:   -656  78  81
1720776653,642:   5127  78  81
1720776653,642:   7528  78  81
1720776653,642:   3509  78  81
1720776653,642:  -1317  78  81
1720776653,642:   -262  78  81
1720776653,642:   5268  78  81
1720776653,642:   7801  78  81
1720776653,642:   3708  78  81
1720776653,642:  -1780  78  81
1720776653,642:  -1466  78  81
1720776653,642:   4125  78  81
1720776653,642:   7600  78  81
1720776653,674:   4498  78  81
1720776653,674:   -807  78  81
1720776653,674:   -976  78  81
1720776653,674:   4255  78  81
1720776653,674:   7850  78  81
1720776653,674:   4842  78  81
1720776653,674:   -961  78  81
1720776653,674:  -1910  78  81
1720776653,674:   3138  78  81
1720776653,674:   7461  78  81
1720776653,674:   5425  78  81
1720776653,674:    -63  78  81
1720776653,674:  -1438  78  81
1720776653,674:   3180  78  81
1720776653,674:   7543  78  81
1720776653,705:   5658  78  81
1720776653,705:   -204  78  81
1720776653,705:  -2324  78  81
1720776653,705:   2023  78  81
1720776653,705:   7054  78  81
1720776653,705:   6228  78  81
1720776653,705:    872  78  81
1720776653,705:  -1591  78  81
1720776653,705:   2226  78  81
1720776653,705:   7140  78  81
1720776653,705:   6428  78  81
1720776653,705:    768  78  81
1720776653,705:  -2419  78  81
1720776653,705:   1009  78  81
1720776653,705:   6443  78  81
1720776653,737:   6754  78  81
1720776653,737:   1705  78  81
1720776653,737:  -1721  78  81
1720776653,737:   1195  78  81
1720776653,737:   6503  78  81
1720776653,737:   7005  78  81
1720776653,737:   1781  78  81
1720776653,737:  -2340  78  81
1720776653,737:     42  78  81
1720776653,737:   5695  78  81
1720776653,737:   7190  78  81
1720776653,737:   2716  78  81
1720776653,737:  -1511  78  81
1720776653,737:    339  78  81
1720776653,737:   5743  78  81
1720776653,737:   7364  78  81
1720776653,737:   2770  78  81
1720776653,737:  -2107  78  81
1720776653,737:   -866  78  81
1720776653,737:   4764  78  81
1720776653,737:   7372  78  81
1720776653,737:   3667  78  81
1720776653,737:  -1165  78  81
1720776653,769:   -447  78  81
1720776653,769:   4851  78  81
1720776653,769:   7568  78  81
1720776653,769:   3865  78  81
1720776653,769:  -1514  78  81
1720776653,769:  -1482  78  81
1720776653,769:   3816  78  81
1720776653,800:   7352  78  81
1720776653,800:   4550  78  81
1720776653,800:   -654  78  81
1720776653,800:  -1077  78  81
1720776653,800:   3881  78  81
1720776653,800:   7535  78  81
1720776653,800:   4833  78  81
1720776653,800:   -845  78  81
1720776653,800:  -2022  78  81
1720776653,800:   2759  78  81
1720776653,800:   7137  78  81
1720776653,800:   5424  78  81
1720776653,800:    116  78  81
1720776653,800:  -1433  78  81
1720776653,800:   2927  78  81
1720776653,831:   7302  78  81
1720776653,831:   5685  78  81
1720776653,831:    -30  78  81
1720776653,831:  -2336  78  81
1720776653,831:   1723  78  81
1720776653,831:   6705  78  81
1720776653,831:   6086  78  81
1720776653,831:    872  78  81
1720776653,831:  -1714  78  81
1720776653,831:   1919  78  81
1720776653,831:   6880  78  81
1720776653,831:   6430  78  81
1720776653,831:    918  78  81
1720776653,831:  -2430  78  81
1720776653,831:    737  78  81
1720776653,831:   6131  78  81
1720776653,831:   6655  78  81
1720776653,831:   1776  78  81
1720776653,831:  -1731  78  81
1720776653,831:   1011  78  81
1720776653,831:   6326  78  81
1720776653,831:   7021  78  81
1720776653,831:   1900  78  81
1720776653,862:  -2385  78  81
1720776653,862:   -241  78  81
1720776653,862:   5389  78  81
1720776653,862:   7077  78  81
1720776653,862:   2724  78  81
1720776653,862:  -1623  78  81
1720776653,862:     74  78  81
1720776653,862:   5587  78  81
1720776653,862:   7527  78  81
1720776653,862:   3105  78  81
1720776653,862:  -1961  78  81
1720776653,862:  -1023  78  81
1720776653,894:   4551  78  81
1720776653,894:   7366  78  81
1720776653,894:   3798  78  81
1720776653,894:  -1185  78  81
1720776653,894:   -677  78  81
1720776653,894:   4697  78  81
1720776653,894:   7737  78  81
1720776653,894:   4204  78  81
1720776653,894:  -1404  78  81
1720776653,894:  -1722  78  81
1720776653,894:   3545  78  81
1720776653,894:   7389  78  81
1720776653,894:   4824  78  81
1720776653,894:   -520  78  81
1720776653,894:  -1239  78  81
1720776653,894:   3694  78  81
1720776653,894:   7644  78  81
1720776653,894:   5170  78  81
1720776653,894:   -667  78  81
1720776653,894:  -2187  78  81
1720776653,894:   2513  78  81
1720776653,894:   7149  78  81
1720776653,926:   5656  78  81
1720776653,926:    216  78  81
1720776653,926:  -1625  78  81
1720776653,926:   2736  78  81
1720776653,926:   7481  78  81
1720776653,926:   6183  78  81
1720776653,926:    347  78  81
1720776653,926:  -2359  78  81
1720776653,958:   1531  78  81
1720776653,958:   6752  78  81
1720776653,958:   6423  78  81
1720776653,958:   1152  78  81
1720776653,958:  -1740  78  81
1720776653,958:   1805  78  81
1720776653,958:   7058  78  81
1720776653,958:   6917  78  81
1720776653,958:   1308  78  81
1720776653,958:  -2442  78  81
1720776653,958:    538  78  81
1720776653,958:   6194  78  81
1720776653,958:   7057  78  81
1720776653,958:   2118  78  81
1720776653,958:  -1796  78  81
1720776653,958:    745  78  81
1720776653,958:   6371  78  81
1720776653,958:   7541  78  81
1720776653,958:   2494  78  81
1720776653,958:  -2184  78  81
1720776653,958:   -370  78  81
1720776653,958:   5386  78  81
1720776653,989:   7423  78  81
1720776653,989:   3118  78  81
1720776653,989:  -1594  78  81
1720776653,989:   -199  78  81
1720776653,989:   5471  78  81
1720776653,989:   7816  78  81
1720776653,989:   3510  78  81
1720776653,989:  -1897  78  81
1720776654,021:  -1301  78  81
1720776654,021:   4395  78  81
1720776654,021:   7651  78  81
1720776654,021:   4285  78  81
1720776654,021:   -985  78  81
1720776654,021:   -864  78  81
1720776654,021:   4530  78  81
1720776654,021:   7959  78  81
1720776654,021:   4689  78  81
1720776654,021:  -1097  78  81
1720776654,021:  -1735  78  81
1720776654,021:   3550  78  81
1720776654,021:   7743  78  81
1720776654,021:   5355  78  81
1720776654,021:   -335  78  81
1720776654,021:  -1662  78  81
1720776654,021:   2935  78  81
1720776654,021:   6908  78  81
1720776654,021:   4404  78  81
1720776654,021:  -1845  78  81
1720776654,021:  -3872  78  81
1720776654,021:    836  78  81
1720776654,052:   6179  77  80
1720776654,052:   5680  77  80
1720776654,052:   1090  77  80
1720776654,052:     97  77  80
1720776654,052:   5796  77  80
1720776654,052:  12447  77  80
1720776654,052:  13082  77  80
1720776654,052:   8643  77  80
1720776654,052:   6895  77  80
1720776654,052:  11879  77  80
1720776654,052:  18529  77  80
1720776654,052:  19413  77  80
1720776654,052:  14464  77  80
1720776654,052:  10992  77  80
1720776654,052:  13668  77  80
1720776654,084:  18123  77  80
1720776654,084:  16890  77  80
1720776654,084:   9342  77  80
1720776654,084:   2928  77  80
1720776654,084:   3368  77  80
1720776654,084:   7267  77  80
1720776654,084:   6971  77  80
1720776654,084:    821  77  80
1720776654,084:  -4554  77  80
1720776654,084:  -3166  77  80
1720776654,084:   2194  77  80
1720776654,084:   3856  77  80
1720776654,084:   -635  77  80
1720776654,084:  -5179  77  80
1720776654,084:  -3473  77  80
1720776654,116:   2357  77  80
1720776654,116:   4684  77  80
1720776654,116:    511  77  80
1720776654,116:  -4492  77  80
1720776654,116:  -3589  77  80
1720776654,116:   1819  77  80
1720776654,116:   4237  77  80
1720776654,116:     72  77  80
1720776654,116:  -5378  77  80
1720776654,116:  -4881  77  80
1720776654,116:    960  77  80
1720776654,116:   4631  77  80
1720776654,116:   1632  77  80
1720776654,116:  -3619  77  80
1720776654,116:  -3731  77  80
1720776654,147:   1535  77  80
1720776654,147:   5089  77  80
1720776654,147:   1995  77  80
1720776654,147:  -3812  77  80
1720776654,147:  -4586  77  80
1720776654,147:    759  77  80
1720776654,147:   5316  77  80
1720776654,147:   3345  77  80
1720776654,147:  -2162  77  80
1720776654,147:  -3475  77  80
1720776654,147:   1311  77  80
1720776654,147:   5793  77  80
1720776654,147:   3862  77  80
1720776654,147:  -2116  77  80
1720776654,147:  -4205  77  80
1720776654,178:    366  77  80
1720776654,178:   5599  77  80
1720776654,178:   4749  77  80
1720776654,178:   -773  77  80
1720776654,178:  -3250  77  80
1720776654,178:    829  77  80
1720776654,178:   6044  77  80
1720776654,178:   5376  77  80
1720776654,178:   -478  77  80
1720776654,178:  -3775  77  80
1720776654,178:   -175  77  80
1720776654,178:   5515  77  80
1720776654,178:   5846  77  80
1720776654,178:    572  77  80
1720776654,178:  -2982  77  80
1720776654,178:    146  77  80
1720776654,178:   5804  77  80
1720776654,178:   6391  77  80
1720776654,178:    904  77  80
1720776654,178:  -3474  77  80
1720776654,178:  -1006  77  80
1720776654,178:   4956  77  80
1720776654,178:   6580  77  80
1720776654,209:   1906  77  80
1720776654,209:  -2532  77  80
1720776654,209:   -535  77  80
1720776654,209:   5288  77  80
1720776654,209:   7159  77  80
1720776654,209:   2415  77  80
1720776654,209:  -2744  77  80
1720776654,241:  -1507  77  80
1720776654,241:   4389  77  80
1720776654,241:   7147  77  80
1720776654,241:   3242  77  80
1720776654,241:  -1889  77  80
1720776654,241:  -1147  77  80
1720776654,241:   4511  77  80
1720776654,241:   7500  77  80
1720776654,241:   3671  77  80
1720776654,241:  -2035  77  80
1720776654,241:  -2076  77  80
1720776654,241:   3502  77  80
1720776654,241:   7298  77  80
1720776654,241:   4408  77  80
1720776654,241:  -1081  77  80
1720776654,241:  -1556  77  80
1720776654,241:   3679  77  80
1720776654,241:   7571  77  80
1720776654,241:   4730  77  80
1720776654,241:  -1307  77  80
1720776654,241:  -2587  77  80
1720776654,241:   2498  77  80
1720776654,241:   7200  77  80
1720776654,272:   5412  77  80
1720776654,272:   -257  77  80
1720776654,272:  -1942  77  80
1720776654,272:   2739  77  80
1720776654,272:   7521  77  80
1720776654,272:   5905  77  80
1720776654,272:   -192  77  80
1720776654,272:  -2742  77  80
1720776654,272:   1541  77  80
1720776654,272:   6915  77  80
1720776654,272:   6329  77  80
1720776654,272:    733  77  80
1720776654,272:  -2148  77  80
1720776654,272:   1671  77  80
1720776654,272:   7061  77  80
1720776654,303:   6727  77  80
1720776654,303:    876  77  80
1720776654,303:  -2802  77  80
1720776654,303:    511  77  80
1720776654,303:   6375  77  80
1720776654,303:   7121  77  80
1720776654,303:   1976  77  80
1720776654,303:  -1895  77  80
1720776654,303:    892  77  80
1720776654,303:   6606  77  80
1720776654,303:   7547  77  80
1720776654,303:   2230  77  80
1720776654,303:  -2388  77  80
1720776654,303:   -220  77  80
1720776654,303:   5801  77  80
1720776654,335:   7779  77  80
1720776654,335:   3287  77  80
1720776654,335:  -1397  77  80
1720776654,335:    233  77  80
1720776654,335:   6020  77  80
1720776654,335:   8185  77  80
1720776654,335:   3624  77  80
1720776654,335:  -1765  77  80
1720776654,335:   -904  77  80
1720776654,335:   4940  77  80
1720776654,335:   8018  77  80
1720776654,335:   4366  77  80
1720776654,335:   -926  77  80
1720776654,335:   -550  77  80
1720776654,335:   5004  77  80
1720776654,365:   8240  77  80
1720776654,365:   4611  77  80
1720776654,365:  -1291  77  80
1720776654,365:  -1713  77  80
1720776654,365:   3785  77  80
1720776654,365:   7907  77  80
1720776654,365:   5305  77  80
1720776654,365:   -339  77  80
1720776654,365:  -1228  77  80
1720776654,365:   3890  77  80
1720776654,365:   8135  77  80
1720776654,365:   5687  77  80
1720776654,365:   -417  77  80
1720776654,365:  -2130  77  80
1720776654,365:   2704  77  80
1720776654,397:   7612  77  80
1720776654,397:   6143  77  80
1720776654,397:    417  77  80
1720776654,397:  -1660  77  80
1720776654,397:   2811  77  80
1720776654,397:   7837  77  80
1720776654,397:   6578  77  80
1720776654,397:    444  77  80
1720776654,397:  -2516  77  80
1720776654,397:   1526  77  80
1720776654,397:   7168  77  80
1720776654,397:   7033  77  80
1720776654,397:   1511  77  80
1720776654,397:  -1735  77  80
1720776654,397:   1807  77  80
1720776654,397:   7387  77  80
1720776654,397:   7450  77  80
1720776654,397:   1638  77  80
1720776654,397:  -2460  77  80
1720776654,397:    478  77  80
1720776654,397:   6436  77  80
1720776654,397:   7541  77  80
1720776654,428:   2468  77  80
1720776654,428:  -1751  77  80
1720776654,428:    746  77  80
1720776654,428:   6652  77  80
1720776654,428:   8042  77  80
1720776654,428:   2840  77  80
1720776654,428:  -2178  77  80
1720776654,428:   -452  77  80
1720776654,459:   5576  77  80
1720776654,459:   7892  77  80
1720776654,459:   3525  77  80
1720776654,459:  -1463  77  80
1720776654,459:   -153  77  80
1720776654,459:   5747  77  80
1720776654,459:   8316  77  80
1720776654,459:   3896  77  80
1720776654,459:  -1845  77  80
1720776654,459:  -1391  77  80
1720776654,459:   4506  77  80
1720776654,459:   8006  77  80
1720776654,459:   4578  77  80
1720776654,459:   -979  77  80
1720776654,459:   -966  77  80
1720776654,491:   4673  77  80
1720776654,491:   8393  77  80
1720776654,491:   5066  77  80
1720776654,491:  -1084  77  80
1720776654,491:  -1961  77  80
1720776654,491:   3449  77  80
1720776654,491:   7906  77  80
1720776654,491:   5558  77  80
1720776654,491:   -294  77  80
1720776654,491:  -1574  77  80
1720776654,491:   3523  77  80
1720776654,491:   8175  77  80
1720776654,491:   6042  77  80
1720776654,491:   -267  77  80
1720776654,491:  -2450  77  80
1720776654,491:   2258  77  80
1720776654,491:   7550  77  80
1720776654,491:   6498  77  80
1720776654,491:    718  77  80
1720776654,491:  -1768  77  80
1720776654,491:   2508  77  80
1720776654,491:   7804  77  80
1720776654,521:   6919  77  80
1720776654,521:    766  77  80
1720776654,521:  -2575  77  80
1720776654,521:   1221  77  80
1720776654,521:   7024  77  80
1720776654,521:   7186  77  80
1720776654,521:   1649  77  80
1720776654,521:  -1926  77  80
1720776654,521:   1433  77  80
1720776654,521:   7260  77  80
1720776654,521:   7721  77  80
1720776654,521:   1972  77  80
1720776654,521:  -2465  77  80
1720776654,521:    183  77  80
1720776654,521:   6262  77  80
1720776654,551:   7718  77  80
1720776654,551:   2756  77  80
1720776654,551:  -1738  77  80
1720776654,551:    475  77  80
1720776654,551:   6448  77  80
1720776654,551:   8128  77  80
1720776654,551:   3007  77  80
1720776654,551:  -2289  77  80
1720776654,551:   -824  77  80
1720776654,551:   5336  77  80
1720776654,551:   8031  77  80
1720776654,551:   3811  77  80
1720776654,551:  -1460  77  80
1720776654,551:   -478  77  80
1720776654,551:   5501  77  80
1720776654,583:   8479  77  80
1720776654,583:   4293  77  80
1720776654,583:  -1675  77  80
1720776654,583:  -1577  77  80
1720776654,583:   4314  77  80
1720776654,583:   8147  77  80
1720776654,583:   4921  77  80
1720776654,583:   -876  77  80
1720776654,583:  -1243  77  80
1720776654,583:   4380  77  80
1720776654,583:   8473  77  80
1720776654,583:   5419  77  80
1720776654,583:   -932  77  80
1720776654,583:  -2217  77  80
1720776654,583:   3139  77  80
1720776654,614:   7995  77  80
1720776654,614:   6021  77  80
1720776654,614:     72  77  80
1720776654,614:  -1607  77  80
1720776654,614:   3336  77  80
1720776654,614:   8259  77  80
1720776654,614:   6433  77  80
1720776654,614:     21  77  80
1720776654,614:  -2553  77  80
1720776654,614:   1990  77  80
1720776654,614:   7527  77  80
1720776654,614:   6760  77  80
1720776654,614:    879  77  80
1720776654,614:  -1973  77  80
1720776654,614:   2195  77  80
1720776654,646:   7820  77  80
1720776654,646:   7294  77  80
1720776654,646:   1045  77  80
1720776654,646:  -2742  77  80
1720776654,646:    828  77  80
1720776654,646:   6888  77  80
1720776654,646:   7415  77  80
1720776654,646:   1854  77  80
1720776654,646:  -2081  77  80
1720776654,646:   1126  77  80
1720776654,646:   7246  77  80
1720776654,646:   8068  77  80
1720776654,646:   2238  77  80
1720776654,646:  -2655  77  80
1720776654,646:   -235  77  80
1720776654,677:   6142  77  80
1720776654,677:   8018  77  80
1720776654,677:   3021  77  80
1720776654,677:  -1935  77  80
1720776654,677:     27  77  80
1720776654,677:   6342  77  80
1720776654,677:   8576  77  80
1720776654,677:   3560  77  80
1720776654,677:  -2176  77  80
1720776654,677:  -1085  77  80
1720776654,677:   5235  77  80
1720776654,677:   8358  77  80
1720776654,677:   4215  77  80
1720776654,677:  -1463  77  80
1720776654,677:   -807  77  80
1720776654,677:   5400  77  80
1720776654,677:   8884  77  80
1720776654,677:   4820  77  80
1720776654,677:  -1598  77  80
1720776654,677:  -1935  77  80
1720776654,677:   4111  77  80
1720776654,677:   8497  77  80
1720776654,677:   5523  77  80
1720776654,708:   -608  77  80
1720776654,708:  -1387  77  80
1720776654,708:   4345  77  80
1720776654,708:   8932  77  80
1720776654,708:   6099  77  80
1720776654,708:   -632  77  80
1720776654,708:  -2410  77  80
1720776654,708:   2980  77  80
1720776654,708:   8320  77  80
1720776654,708:   6600  77  80
1720776654,708:    303  77  80
1720776654,708:  -1869  77  80
1720776654,708:   3132  77  80
1720776654,708:   8636  77  80
1720776654,708:   7200  77  80
1720776654,739:    498  77  80
1720776654,739:  -2654  77  80
1720776654,739:   1786  77  80
1720776654,739:   7805  77  80
1720776654,739:   7452  77  80
1720776654,739:   1361  77  80
1720776654,739:  -2048  77  80
1720776654,770:   1965  77  80
1720776654,770:   8029  77  80
1720776654,770:   7942  77  80
1720776654,770:   1528  77  80
1720776654,770:  -2826  77  80
1720776654,770:    543  77  80
1720776654,770:   7066  77  80
1720776654,770:   8158  77  80
1720776654,770:   2562  77  80
1720776654,770:  -1950  77  80
1720776654,770:    890  77  80
1720776654,770:   7299  77  80
1720776654,770:   8645  77  80
1720776654,770:   2856  77  80
1720776654,770:  -2550  77  80
1720776654,770:   -516  77  80
1720776654,770:   6103  77  80
1720776654,770:   8526  77  80
1720776654,770:   3662  77  80
1720776654,770:  -1750  77  80
1720776654,770:   -220  77  80
1720776654,770:   6250  77  80
1720776654,770:   8992  77  80
1720776654,802:   4132  77  80
1720776654,802:  -2056  77  80
1720776654,802:  -1450  77  80
1720776654,802:   5004  77  80
1720776654,802:   8752  77  80
1720776654,802:   4990  77  80
1720776654,802:   -966  77  80
1720776654,802:   -815  77  80
1720776654,802:   5343  77  80
1720776654,802:   9251  77  80
1720776654,802:   5454  77  80
1720776654,802:  -1344  77  80
1720776654,802:  -2443  77  80
1720776654,802:   3198  77  80
1720776654,802:   7735  77  80
1720776654,833:   4933  77  80
1720776654,833:  -1545  77  80
1720776654,833:  -2928  77  80
1720776654,833:   2780  77  80
1720776654,833:   8281  77  80
1720776654,833:   6725  77  80
1720776654,833:    843  77  80
1720776654,833:   -430  77  80
1720776654,833:   6018  77  80
1720776654,833:  13425  77  80
1720776654,833:  14026  77  80
1720776654,833:   9085  77  80
1720776654,833:   7103  77  80
1720776654,833:  12208  77  80
1720776654,833:  18671  77  80
1720776654,864:  18607  75  77
1720776654,864:  12312  75  77
1720776654,864:   7981  75  77
1720776654,864:  10520  75  77
1720776654,864:  15091  75  77
1720776654,864:  13806  75  77
1720776654,864:   6380  75  77
1720776654,864:    750  75  77
1720776654,864:   2392  75  77
1720776654,864:   6960  75  77
1720776654,864:   6319  75  77
1720776654,864:   -538  75  77
1720776654,896:  -5748  75  77
1720776654,896:  -3139  75  77
1720776654,896:   3453  75  77
1720776654,896:   5330  75  77
1720776654,896:    320  75  77
1720776654,896:  -4413  75  77
1720776654,896:  -2206  75  77
1720776654,896:   4000  75  77
1720776654,896:   5695  75  77
1720776654,896:    187  75  77
1720776654,896:  -5507  75  77
1720776654,896:  -4019  75  77
1720776654,896:   2486  75  77
1720776654,896:   5382  75  77
1720776654,896:   1008  75  77
1720776654,896:  -4448  75  77
1720776654,896:  -3285  75  77
1720776654,896:   3149  75  77
1720776654,896:   6396  75  77
1720776654,896:   2062  75  77
1720776654,896:  -4177  75  77
1720776654,896:  -4063  75  77
1720776654,896:   2125  75  77
1720776654,927:   6169  75  77
1720776654,927:   2865  75  77
1720776654,927:  -3041  75  77
1720776654,927:  -3206  75  77
1720776654,927:   2862  75  77
1720776654,927:   7225  75  77
1720776654,927:   4044  75  77
1720776654,927:  -2564  75  77
1720776654,927:  -3840  75  77
1720776654,927:   1792  75  77
1720776654,927:   6830  75  77
1720776654,927:   4735  75  77
1720776654,927:  -1389  75  77
1720776654,927:  -2927  75  77
1720776654,927:   2436  75  77
1720776654,958:   7630  75  77
1720776654,958:   5649  75  77
1720776654,958:  -1091  75  77
1720776654,958:  -3701  75  77
1720776654,958:   1190  75  77
1720776654,958:   7072  75  77
1720776654,958:   6281  75  77
1720776654,958:    126  75  77
1720776654,958:  -2826  75  77
1720776654,958:   1586  75  77
1720776654,958:   7519  75  77
1720776654,958:   7015  75  77
1720776654,958:    547  75  77
1720776654,958:  -3345  75  77
1720776654,958:    438  75  77
1720776654,990:   6814  75  77
1720776654,990:   7420  75  77
1720776654,990:   1648  75  77
1720776654,990:  -2513  75  77
1720776654,990:    689  75  77
1720776654,990:   6961  75  77
1720776654,990:   7855  75  77
1720776654,990:   1939  75  77
1720776654,990:  -3034  75  77
1720776654,990:   -531  75  77
1720776654,990:   6041  75  77
1720776654,990:   8046  75  77
1720776654,990:   3034  75  77
1720776654,990:  -1984  75  77
1720776654,990:    -28  75  77
1720776655,021:   6306  75  77
1720776655,021:   8484  75  77
1720776655,021:   3334  75  77
1720776655,021:  -2488  75  77
1720776655,021:  -1335  75  77
1720776655,021:   5149  75  77
1720776655,021:   8403  75  77
1720776655,021:   4281  75  77
1720776655,021:  -1437  75  77
1720776655,021:   -811  75  77
1720776655,021:   5386  75  77
1720776655,021:   8849  75  77
1720776655,021:   4758  75  77
1720776655,021:  -1644  75  77
1720776655,021:  -1927  75  77
1720776655,052:   4144  75  77
1720776655,052:   8484  75  77
1720776655,052:   5449  75  77
1720776655,052:   -667  75  77
1720776655,052:  -1365  75  77
1720776655,052:   4399  75  77
1720776655,052:   8896  75  77
1720776655,052:   5920  75  77
1720776655,052:   -851  75  77
1720776655,052:  -2527  75  77
1720776655,052:   2985  75  77
1720776655,052:   8340  75  77
1720776655,052:   6558  75  77
1720776655,052:    263  75  77
1720776655,052:  -1785  75  77
1720776655,084:   3337  75  77
1720776655,084:   8818  75  77
1720776655,084:   7245  75  77
1720776655,084:    468  75  77
1720776655,084:  -2587  75  77
1720776655,084:   2006  75  77
1720776655,084:   8042  75  77
1720776655,084:   7539  75  77
1720776655,084:   1318  75  77
1720776655,084:  -2013  75  77
1720776655,084:   2231  75  77
1720776655,084:   8457  75  77
1720776655,084:   8321  75  77
1720776655,084:   1761  75  77
1720776655,084:  -2623  75  77
1720776655,115:    872  75  77
1720776655,115:   7510  75  77
1720776655,115:   8565  75  77
1720776655,115:   2850  75  77
1720776655,115:  -1665  75  77
1720776655,115:   1330  75  77
1720776655,115:   7881  75  77
1720776655,115:   9196  75  77
1720776655,115:   3257  75  77
1720776655,115:  -2209  75  77
1720776655,115:    -66  75  77
1720776655,115:   6684  75  77
1720776655,115:   9086  75  77
1720776655,115:   4080  75  77
1720776655,115:  -1395  75  77
1720776655,147:    241  75  77
1720776655,147:   6843  75  77
1720776655,147:   9566  75  77
1720776655,147:   4555  75  77
1720776655,147:  -1716  75  77
1720776655,147:  -1027  75  77
1720776655,147:   5523  75  77
1720776655,147:   9198  75  77
1720776655,147:   5215  75  77
1720776655,147:   -888  75  77
1720776655,147:   -685  75  77
1720776655,147:   5592  75  77
1720776655,147:   9501  75  77
1720776655,147:   5595  75  77
1720776655,147:  -1183  75  77
1720776655,177:  -1926  75  77
1720776655,177:   4213  75  77
1720776655,177:   9084  75  77
1720776655,177:   6367  75  77
1720776655,177:    -67  75  77
1720776655,177:  -1334  75  77
1720776655,177:   4318  75  77
1720776655,177:   9263  75  77
1720776655,177:   6698  75  77
1720776655,177:   -251  75  77
1720776655,177:  -2455  75  77
1720776655,177:   2857  75  77
1720776655,177:   8567  75  77
1720776655,177:   7190  75  77
1720776655,177:    772  75  77
1720776655,177:  -1813  75  77
1720776655,177:   3016  75  77
1720776655,177:   8755  75  77
1720776655,177:   7572  75  77
1720776655,177:    724  75  77
1720776655,177:  -2818  75  77
1720776655,177:   1528  75  77
1720776655,208:   7946  75  77
1720776655,208:   8057  75  77
1720776655,208:   1973  75  77
1720776655,208:  -1834  75  77
1720776655,208:   1930  75  77
1720776655,208:   8211  75  77
1720776655,208:   8498  75  77
1720776655,208:   2098  75  77
1720776655,208:  -2638  75  77
1720776655,208:    452  75  77
1720776655,208:   7138  75  77
1720776655,208:   8581  75  77
1720776655,208:   3018  75  77
1720776655,208:  -1842  75  77
1720776655,208:    749  75  77
1720776655,239:   7367  75  77
1720776655,239:   9135  75  77
1720776655,239:   3445  75  77
1720776655,239:  -2307  75  77
1720776655,239:   -589  75  77
1720776655,239:   6176  75  77
1720776655,239:   9023  75  77
1720776655,239:   4311  75  77
1720776655,239:  -1401  75  77
1720776655,239:   -195  75  77
1720776655,239:   6360  75  77
1720776655,239:   9456  75  77
1720776655,239:   4697  75  77
1720776655,239:  -1829  75  77
1720776655,239:  -1565  75  77
1720776655,271:   4991  75  77
1720776655,271:   9134  75  77
1720776655,271:   5490  75  77
1720776655,271:   -828  75  77
1720776655,271:  -1059  75  77
1720776655,271:   5216  75  77
1720776655,271:   9628  75  77
1720776655,271:   6129  75  77
1720776655,271:   -851  75  77
1720776655,271:  -2124  75  77
1720776655,271:   3835  75  77
1720776655,271:   9048  75  77
1720776655,271:   6671  75  77
1720776655,271:     78  75  77
1720776655,271:  -1608  75  77
1720776655,302:   4003  75  77
1720776655,302:   9412  75  77
1720776655,302:   7250  75  77
1720776655,302:    117  75  77
1720776655,302:  -2614  75  77
1720776655,302:   2542  75  77
1720776655,302:   8692  75  77
1720776655,302:   7797  75  77
1720776655,302:   1298  75  77
1720776655,302:  -1788  75  77
1720776655,302:   2823  75  77
1720776655,302:   8928  75  77
1720776655,302:   8229  75  77
1720776655,302:   1354  75  77
1720776655,302:  -2679  75  77
1720776655,332:   1356  75  77
1720776655,332:   8007  75  77
1720776655,332:   8530  75  77
1720776655,332:   2447  75  77
1720776655,332:  -1790  75  77
1720776655,332:   1707  75  77
1720776655,332:   8255  75  77
1720776655,332:   9012  75  77
1720776655,332:   2677  75  77
1720776655,332:  -2482  75  77
1720776655,332:    254  75  77
1720776655,332:   7117  75  77
1720776655,332:   9058  75  77
1720776655,332:   3717  75  77
1720776655,332:  -1430  75  77
1720776655,363:    774  75  77
1720776655,363:   7371  75  77
1720776655,363:   9419  75  77
1720776655,363:   3851  75  77
1720776655,363:  -2162  75  77
1720776655,363:   -753  75  77
1720776655,363:   6081  75  77
1720776655,363:   9323  75  77
1720776655,363:   4859  75  77
1720776655,363:  -1062  75  77
1720776655,363:   -250  75  77
1720776655,363:   6218  75  77
1720776655,363:   9617  75  77
1720776655,363:   5150  75  77
1720776655,363:  -1478  75  77
1720776655,396:  -1558  75  77
1720776655,396:   4867  75  77
1720776655,396:   9263  75  77
1720776655,396:   5933  75  77
1720776655,396:   -431  75  77
1720776655,396:  -1030  75  77
1720776655,396:   4994  75  77
1720776655,396:   9523  75  77
1720776655,396:   6273  75  77
1720776655,396:   -729  75  77
1720776655,396:  -2297  75  77
1720776655,396:   3517  75  77
1720776655,396:   9003  75  77
1720776655,396:   7067  75  77
1720776655,396:    587  75  77
1720776655,396:  -1431  75  77
1720776655,396:   3824  75  77
1720776655,396:   9259  75  77
1720776655,396:   7412  75  77
1720776655,396:    412  75  77
1720776655,396:  -2571  75  77
1720776655,396:   2271  75  77
1720776655,396:   8430  75  77
1720776655,427:   7824  75  77
1720776655,427:   1475  75  77
1720776655,427:  -1816  75  77
1720776655,427:   2536  75  77
1720776655,427:   8712  75  77
1720776655,427:   8358  75  77
1720776655,427:   1658  75  77
1720776655,427:  -2610  75  77
1720776655,427:   1085  75  77
1720776655,427:   7698  75  77
1720776655,427:   8476  75  77
1720776655,427:   2528  75  77
1720776655,427:  -1926  75  77
1720776655,427:   1285  75  77
1720776655,427:   7863  75  77
1720776655,458:   8931  75  77
1720776655,458:   2763  75  77
1720776655,458:  -2606  75  77
1720776655,458:   -150  75  77
1720776655,458:   6755  75  77
1720776655,458:   8995  75  77
1720776655,458:   3780  75  77
1720776655,489:  -1614  75  77
1720776655,489:    330  75  77
1720776655,489:   7078  75  77
