timestamp: ADC HeartRate4sAverage HeartRate30sAverage
1720809604,381:     10  77  76
1720809604,381:    -18  77  76
1720809604,381:    -47  77  76
1720809604,381:    -50  77  76
1720809604,381:    -30  77  76
1720809604,381:    -16  77  76
1720809604,381:    -24  77  76
1720809604,381:    -37  77  76
1720809604,381:    -31  77  76
1720809604,381:     -9  77  76
1720809604,381:      4  77  76
1720809604,381:     -4  77  76
1720809604,381:    -21  77  76
1720809604,381:    -23  77  76
1720809604,381:     -8  77  76
1720809604,411:      0  77  76
1720809604,411:    -12  77  76
1720809604,411:    -28  77  76
1720809604,411:    -29  77  76
1720809604,411:    -14  77  76
1720809604,411:     -8  77  76
1720809604,411:    -25  77  76
1720809604,411:    -49  77  76
1720809604,411:    -53  77  76
1720809604,411:    -35  77  76
1720809604,411:    -18  77  76
1720809604,411:    -22  77  76
1720809604,442:    -35  77  76
1720809604,442:    -37  77  76
1720809604,442:    -20  77  76
1720809604,442:     -4  77  76
1720809604,442:     -8  77  76
1720809604,442:    -24  77  76
1720809604,442:    -30  77  76
1720809604,442:    -18  77  76
1720809604,442:     -2  77  76
1720809604,442:      0  77  76
1720809604,442:     -9  77  76
1720809604,442:    -10  77  76
1720809604,442:      6  77  76
1720809604,442:     24  77  76
1720809604,442:     24  77  76
1720809604,442:      5  77  76
1720809604,442:    -13  77  76
1720809604,442:    -12  77  76
1720809604,442:      0  77  76
1720809604,442:      5  77  76
1720809604,442:     -5  77  76
1720809604,442:    -15  77  76
1720809604,442:     -9  77  76
1720809604,474:      6  77  76
1720809604,474:     13  77  76
1720809604,474:      5  77  76
1720809604,474:     -2  77  76
1720809604,474:      7  77  76
1720809604,474:     24  77  76
1720809604,474:     31  77  76
1720809604,506:     22  77  76
1720809604,506:     15  77  76
1720809604,506:     27  77  76
1720809604,506:     47  77  76
1720809604,506:     50  77  76
1720809604,506:     30  77  76
1720809604,506:      8  77  76
1720809604,506:      8  77  76
1720809604,506:     28  77  76
1720809604,506:     40  77  76
1720809604,506:     32  77  76
1720809604,506:     22  77  76
1720809604,506:     29  77  76
1720809604,506:     49  77  76
1720809604,506:     56  77  76
1720809604,538:     41  77  76
1720809604,538:     21  77  76
1720809604,538:     18  77  76
1720809604,538:     31  77  76
1720809604,538:     34  77  76
1720809604,538:     21  77  76
1720809604,538:      8  77  76
1720809604,538:     16  77  76
1720809604,538:     33  77  76
1720809604,538:     32  77  76
1720809604,538:      2  77  76
1720809604,538:    -31  77  76
1720809604,538:    -36  77  76
1720809604,538:    -16  77  76
1720809604,538:     -2  77  76
1720809604,538:    -14  77  76
1720809604,538:    -31  77  76
1720809604,538:    -28  77  76
1720809604,538:     -4  77  76
1720809604,538:     10  77  76
1720809604,538:     -7  77  76
1720809604,538:    -37  77  76
1720809604,538:    -48  77  76
1720809604,570:    -34  77  76
1720809604,570:    -20  77  76
1720809604,570:    -29  77  76
1720809604,570:    -50  77  76
1720809604,570:    -52  77  76
1720809604,570:    -29  77  76
1720809604,570:     -6  77  76
1720809604,570:     -8  77  76
1720809604,570:    -31  77  76
1720809604,570:    -45  77  76
1720809604,570:    -31  77  76
1720809604,570:     -7  77  76
1720809604,570:      1  77  76
1720809604,570:    -11  77  76
1720809604,570:    -22  77  76
1720809604,602:    -12  77  76
1720809604,602:      8  77  76
1720809604,602:     10  77  76
1720809604,602:    -11  77  76
1720809604,602:    -31  77  76
1720809604,602:    -27  77  76
1720809604,602:     -7  77  76
1720809604,602:     -2  77  76
1720809604,602:    -21  77  76
1720809604,602:    -42  77  76
1720809604,602:    -37  77  76
1720809604,602:    -11  77  76
1720809604,602:      0  77  76
1720809604,602:    -20  77  76
1720809604,602:    -49  77  76
1720809604,634:    -53  77  76
1720809604,634:    -31  77  76
1720809604,634:    -12  77  76
1720809604,634:    -19  77  76
1720809604,634:    -35  77  76
1720809604,634:    -33  77  76
1720809604,634:    -11  77  76
1720809604,634:      3  77  76
1720809604,634:    -11  77  76
1720809604,634:    -35  77  76
1720809604,634:    -42  77  76
1720809604,634:    -24  77  76
1720809604,634:     -7  77  76
1720809604,634:     -9  77  76
1720809604,634:    -21  77  76
1720809604,666:    -17  77  76
1720809604,666:      3  77  76
1720809604,666:     18  77  76
1720809604,666:     12  77  76
1720809604,666:     -3  77  76
1720809604,666:     -4  77  76
1720809604,666:     10  77  76
1720809604,666:     16  77  76
1720809604,666:      1  77  76
1720809604,666:    -18  77  76
1720809604,666:    -17  77  76
1720809604,666:      5  77  76
1720809604,666:     18  77  76
1720809604,666:      1  77  76
1720809604,666:    -29  77  76
1720809604,698:    -38  77  76
1720809604,698:    -15  77  76
1720809604,698:     11  77  76
1720809604,698:     12  77  76
1720809604,698:     -9  77  76
1720809604,698:    -19  77  76
1720809604,698:     -4  77  76
1720809604,698:     15  77  76
1720809604,698:     10  77  76
1720809604,698:    -15  77  76
1720809604,698:    -28  77  76
1720809604,698:    -11  77  76
1720809604,698:     19  77  76
1720809604,698:     34  77  76
1720809604,698:     31  77  76
1720809604,698:     36  77  76
1720809604,698:     64  77  76
1720809604,698:     94  77  76
1720809604,698:     93  77  76
1720809604,698:     65  77  76
1720809604,698:     42  77  76
1720809604,698:     45  77  76
1720809604,730:     56  77  76
1720809604,730:     47  77  76
1720809604,730:     24  77  76
1720809604,730:     21  77  76
1720809604,730:     59  77  76
1720809604,730:    112  77  76
1720809604,730:    140  77  76
1720809604,730:    137  77  76
1720809604,730:    138  77  76
1720809604,730:    171  77  76
1720809604,730:    221  77  76
1720809604,730:    246  77  76
1720809604,730:    228  77  76
1720809604,730:    196  77  76
1720809604,730:    182  77  76
1720809604,762:    185  77  76
1720809604,762:    172  77  76
1720809604,762:    130  77  76
1720809604,762:     80  77  76
1720809604,762:     56  77  76
1720809604,762:     61  77  76
1720809604,762:     66  77  76
1720809604,762:     47  77  76
1720809604,794:     14  77  76
1720809604,794:     -6  77  76
1720809604,794:     -5  77  76
1720809604,794:     -7  77  76
1720809604,794:    -36  77  76
1720809604,794:    -83  77  76
1720809604,794:   -118  77  76
1720809604,794:   -123  77  76
1720809604,794:   -113  77  76
1720809604,794:   -115  77  76
1720809604,794:   -132  77  76
1720809604,794:   -142  77  76
1720809604,794:   -127  77  76
1720809604,794:   -102  77  76
1720809604,794:    -96  77  76
1720809604,794:   -113  77  76
1720809604,794:   -129  77  76
1720809604,794:   -123  77  76
1720809604,794:   -100  77  76
1720809604,794:    -89  77  76
1720809604,794:    -97  77  76
1720809604,794:   -105  77  76
1720809604,826:    -93  77  76
1720809604,826:    -71  77  76
1720809604,826:    -64  77  76
1720809604,826:    -79  77  76
1720809604,826:    -94  77  76
1720809604,826:    -85  77  76
1720809604,826:    -59  77  76
1720809604,826:    -45  77  76
1720809604,826:    -53  77  76
1720809604,826:    -65  77  76
1720809604,826:    -59  77  76
1720809604,826:    -41  77  76
1720809604,826:    -34  77  76
1720809604,826:    -46  77  76
1720809604,826:    -62  77  76
1720809604,858:    -65  77  76
1720809604,858:    -58  77  76
1720809604,858:    -57  77  76
1720809604,858:    -62  77  76
1720809604,858:    -60  77  76
1720809604,858:    -39  77  76
1720809604,858:    -13  77  76
1720809604,858:      0  77  76
1720809604,858:      0  77  76
1720809604,858:      6  77  76
1720809604,858:     19  77  76
1720809604,858:     12  77  76
1720809604,858:    -34  77  76
1720809604,858:    -96  77  76
1720809604,858:   -134  77  76
1720809604,858:   -153  77  76
1720809604,858:   -213  77  76
1720809604,858:   -347  77  76
1720809604,858:   -499  77  76
1720809604,858:   -553  77  76
1720809604,858:   -422  77  76
1720809604,858:   -109  77  76
1720809604,858:    362  77  76
1720809604,890:   1041  77  76
1720809604,890:   2030  77  76
1720809604,890:   3337  77  76
1720809604,890:   4774  77  76
1720809604,890:   6046  77  76
1720809604,890:   6975  77  76
1720809604,890:   7615  77  76
1720809604,922:   8118  74  76
1720809604,922:   8467  74  76
1720809604,922:   8397  74  76
1720809604,922:   7616  74  76
1720809604,922:   6136  74  76
1720809604,922:   4349  74  76
1720809604,922:   2750  74  76
1720809604,922:   1561  74  76
1720809604,922:    642  74  76
1720809604,922:   -253  74  76
1720809604,922:  -1165  74  76
1720809604,922:  -1882  74  76
1720809604,922:  -2175  74  76
1720809604,922:  -2036  74  76
1720809604,922:  -1673  74  76
1720809604,922:  -1336  74  76
1720809604,922:  -1155  74  76
1720809604,922:  -1127  74  76
1720809604,922:  -1179  74  76
1720809604,922:  -1238  74  76
1720809604,922:  -1254  74  76
1720809604,922:  -1224  74  76
1720809604,922:  -1189  74  76
1720809604,954:  -1203  74  76
1720809604,954:  -1279  74  76
1720809604,954:  -1373  74  76
1720809604,954:  -1429  74  76
1720809604,954:  -1441  74  76
1720809604,954:  -1437  74  76
1720809604,954:  -1436  74  76
1720809604,954:  -1429  74  76
1720809604,954:  -1403  74  76
1720809604,954:  -1370  74  76
1720809604,954:  -1353  74  76
1720809604,954:  -1352  74  76
1720809604,954:  -1337  74  76
1720809604,954:  -1279  74  76
1720809604,954:  -1191  74  76
1720809604,986:  -1113  74  76
1720809604,986:  -1076  74  76
1720809604,986:  -1068  74  76
1720809604,986:  -1061  74  76
1720809604,986:  -1041  74  76
1720809604,986:  -1016  74  76
1720809604,986:   -995  74  76
1720809604,986:   -967  74  76
1720809604,986:   -917  74  76
1720809604,986:   -850  74  76
1720809604,986:   -794  74  76
1720809604,986:   -768  74  76
1720809604,986:   -761  74  76
1720809604,986:   -747  74  76
1720809604,986:   -719  74  76
1720809605,018:   -694  74  76
1720809605,018:   -686  74  76
1720809605,018:   -683  74  76
1720809605,018:   -657  74  76
1720809605,018:   -606  74  76
1720809605,018:   -558  74  76
1720809605,018:   -544  74  76
1720809605,018:   -559  74  76
1720809605,018:   -569  74  76
1720809605,018:   -549  74  76
1720809605,018:   -513  74  76
1720809605,018:   -488  74  76
1720809605,018:   -481  74  76
1720809605,018:   -470  74  76
1720809605,018:   -439  74  76
1720809605,050:   -400  74  76
1720809605,050:   -381  74  76
1720809605,050:   -384  74  76
1720809605,050:   -386  74  76
1720809605,050:   -364  74  76
1720809605,050:   -328  74  76
1720809605,050:   -303  74  76
1720809605,050:   -299  74  76
1720809605,050:   -295  74  76
1720809605,050:   -271  74  76
1720809605,050:   -238  74  76
1720809605,050:   -221  74  76
1720809605,050:   -226  74  76
1720809605,050:   -233  74  76
1720809605,050:   -219  74  76
1720809605,081:   -191  74  76
1720809605,081:   -171  74  76
1720809605,081:   -171  74  76
1720809605,081:   -176  74  76
1720809605,081:   -164  74  76
1720809605,081:   -141  74  76
1720809605,081:   -129  74  76
1720809605,081:   -141  74  76
1720809605,081:   -161  74  76
1720809605,081:   -163  74  76
1720809605,081:   -144  74  76
1720809605,081:   -122  74  76
1720809605,081:   -113  74  76
1720809605,081:   -113  74  76
1720809605,081:   -106  74  76
1720809605,112:    -91  74  76
1720809605,112:    -84  74  76
1720809605,112:    -95  74  76
1720809605,112:   -113  74  76
1720809605,112:   -117  74  76
1720809605,112:   -105  74  76
1720809605,112:    -99  74  76
1720809605,112:   -110  74  76
1720809605,112:   -127  74  76
1720809605,112:   -127  74  76
1720809605,112:   -112  74  76
1720809605,112:   -105  74  76
1720809605,112:   -125  74  76
1720809605,112:   -158  74  76
1720809605,112:   -174  74  76
1720809605,112:   -168  74  76
1720809605,112:   -160  74  76
1720809605,112:   -168  74  76
1720809605,112:   -179  74  76
1720809605,112:   -168  74  76
1720809605,112:   -135  74  76
1720809605,112:   -106  74  76
1720809605,144:   -102  74  76
1720809605,144:   -111  74  76
1720809605,144:   -100  74  76
1720809605,144:    -63  74  76
1720809605,144:    -24  74  76
1720809605,144:    -11  74  76
1720809605,144:    -20  74  76
1720809605,144:    -19  74  76
1720809605,144:      8  74  76
1720809605,144:     42  74  76
1720809605,144:     53  74  76
1720809605,144:     40  74  76
1720809605,144:     26  74  76
1720809605,144:     34  74  76
1720809605,144:     55  74  76
1720809605,175:     64  74  76
1720809605,175:     54  74  76
1720809605,175:     42  74  76
1720809605,175:     44  74  76
1720809605,175:     55  74  76
1720809605,175:     53  74  76
1720809605,175:     31  74  76
1720809605,175:      7  74  76
1720809605,205:      2  74  76
1720809605,205:     12  74  76
1720809605,205:     17  74  76
1720809605,205:      9  74  76
1720809605,205:     -1  74  76
1720809605,205:      4  74  76
1720809605,205:     20  74  76
1720809605,205:     27  74  76
1720809605,205:     14  74  76
1720809605,205:     -4  74  76
1720809605,205:     -7  74  76
1720809605,205:      6  74  76
1720809605,205:     16  74  76
1720809605,205:      7  74  76
1720809605,205:     -9  74  76
1720809605,205:    -11  74  76
1720809605,205:      2  74  76
1720809605,205:     14  74  76
1720809605,205:      3  74  76
1720809605,205:    -21  74  76
1720809605,205:    -33  74  76
1720809605,205:    -23  74  76
1720809605,236:     -2  74  76
1720809605,236:      7  74  76
1720809605,236:      3  74  76
1720809605,236:      3  74  76
1720809605,236:     14  74  76
1720809605,236:     25  74  76
1720809605,236:     21  74  76
1720809605,236:      6  74  76
1720809605,236:      0  74  76
1720809605,236:     11  74  76
1720809605,236:     24  74  76
1720809605,236:     22  74  76
1720809605,236:     11  74  76
1720809605,236:     12  74  76
1720809605,236:     29  74  76
1720809605,268:     44  74  76
1720809605,268:     37  74  76
1720809605,268:     16  74  76
1720809605,268:      7  74  76
1720809605,268:     20  74  76
1720809605,268:     39  74  76
1720809605,268:     40  74  76
1720809605,268:     27  74  76
1720809605,268:     23  74  76
1720809605,268:     38  74  76
1720809605,268:     53  74  76
1720809605,268:     46  74  76
1720809605,268:     21  74  76
1720809605,268:      7  74  76
1720809605,268:     18  74  76
1720809605,300:     35  74  76
1720809605,300:     34  74  76
1720809605,300:     15  74  76
1720809605,300:      6  74  76
1720809605,300:     22  74  76
1720809605,300:     44  74  76
1720809605,300:     44  74  76
1720809605,300:     16  74  76
1720809605,300:    -11  74  76
1720809605,300:    -13  74  76
1720809605,300:      1  74  76
1720809605,300:      4  74  76
1720809605,300:    -14  74  76
1720809605,300:    -32  74  76
1720809605,300:    -29  74  76
1720809605,331:    -10  74  76
1720809605,331:     -4  74  76
1720809605,331:    -23  74  76
1720809605,331:    -45  74  76
1720809605,331:    -42  74  76
1720809605,331:    -18  74  76
1720809605,331:     -2  74  76
1720809605,331:    -10  74  76
1720809605,331:    -25  74  76
1720809605,331:    -23  74  76
1720809605,331:     -5  74  76
1720809605,331:      4  74  76
1720809605,331:    -14  74  76
1720809605,331:    -39  74  76
1720809605,331:    -45  74  76
1720809605,331:    -30  74  76
1720809605,331:    -20  74  76
1720809605,331:    -31  74  76
1720809605,331:    -49  74  76
1720809605,331:    -45  74  76
1720809605,331:    -19  74  76
1720809605,331:      1  74  76
1720809605,331:     -9  74  76
1720809605,363:    -36  74  76
1720809605,363:    -47  74  76
1720809605,363:    -32  74  76
1720809605,363:    -11  74  76
1720809605,363:    -10  74  76
1720809605,363:    -24  74  76
1720809605,363:    -29  74  76
1720809605,363:    -12  74  76
1720809605,363:      8  74  76
1720809605,363:      5  74  76
1720809605,363:    -15  74  76
1720809605,363:    -25  74  76
1720809605,363:     -7  74  76
1720809605,363:     21  74  76
1720809605,363:     31  74  76
1720809605,395:     19  74  76
1720809605,395:      9  74  76
1720809605,395:     18  74  76
1720809605,395:     35  74  76
1720809605,395:     36  74  76
1720809605,395:     17  74  76
1720809605,395:      0  74  76
1720809605,395:      3  74  76
1720809605,395:     14  74  76
1720809605,395:     14  74  76
1720809605,395:      1  74  76
1720809605,395:     -2  74  76
1720809605,395:     15  74  76
1720809605,395:     36  74  76
1720809605,395:     37  74  76
1720809605,427:     19  74  76
1720809605,427:      9  74  76
1720809605,427:     24  74  76
1720809605,427:     48  74  76
1720809605,427:     54  74  76
1720809605,427:     42  74  76
1720809605,427:     34  74  76
1720809605,427:     47  74  76
1720809605,427:     64  74  76
1720809605,427:     59  74  76
1720809605,427:     29  74  76
1720809605,427:      0  74  76
1720809605,459:     -3  74  76
1720809605,459:     15  74  76
1720809605,459:     25  74  76
1720809605,459:     11  74  76
1720809605,459:     -7  74  76
1720809605,459:     -3  74  76
1720809605,459:     21  74  76
1720809605,459:     36  74  76
1720809605,459:     24  74  76
1720809605,459:      0  74  76
1720809605,459:     -6  74  76
1720809605,459:     12  74  76
1720809605,459:     27  74  76
1720809605,459:     18  74  76
1720809605,459:     -6  74  76
1720809605,491:    -13  74  76
1720809605,491:      7  74  76
1720809605,491:     27  74  76
1720809605,491:     19  74  76
1720809605,491:     -9  74  76
1720809605,491:    -20  74  76
1720809605,491:     -1  74  76
1720809605,491:     24  74  76
1720809605,491:     25  74  76
1720809605,491:      6  74  76
1720809605,491:     -1  74  76
1720809605,491:     19  74  76
1720809605,491:     42  74  76
1720809605,491:     36  74  76
1720809605,491:      6  74  76
1720809605,523:    -12  74  76
1720809605,523:      5  74  76
1720809605,523:     34  74  76
1720809605,523:     43  74  76
1720809605,523:     31  74  76
1720809605,523:     29  74  76
1720809605,523:     55  74  76
1720809605,523:     87  74  76
1720809605,523:     89  74  76
1720809605,523:     58  74  76
1720809605,523:     30  74  76
1720809605,523:     33  74  76
1720809605,523:     51  74  76
1720809605,523:     48  74  76
1720809605,523:     14  74  76
1720809605,523:    -17  74  76
1720809605,523:     -8  74  76
1720809605,523:     35  74  76
1720809605,523:     70  74  76
1720809605,523:     75  74  76
1720809605,523:     69  74  76
1720809605,523:     87  74  76
1720809605,523:    133  74  76
1720809605,555:    178  74  76
1720809605,555:    194  74  76
1720809605,555:    192  74  76
1720809605,555:    197  74  76
1720809605,555:    214  74  76
1720809605,555:    216  74  76
1720809605,555:    189  74  76
1720809605,555:    148  74  76
1720809605,555:    125  74  76
1720809605,555:    125  74  76
1720809605,555:    124  74  76
1720809605,555:    105  74  76
1720809605,555:     77  74  76
1720809605,555:     64  74  76
1720809605,555:     65  74  76
1720809605,587:     55  74  76
1720809605,587:     22  74  76
1720809605,587:    -19  74  76
1720809605,587:    -38  74  76
1720809605,587:    -37  74  76
1720809605,587:    -41  74  76
1720809605,587:    -64  74  76
1720809605,587:    -88  74  76
1720809605,587:    -82  74  76
1720809605,587:    -48  74  76
1720809605,587:    -23  74  76
1720809605,587:    -31  74  76
1720809605,587:    -59  74  76
1720809605,587:    -68  74  76
1720809605,587:    -45  74  76
1720809605,619:    -15  74  76
1720809605,619:    -11  74  76
1720809605,619:    -29  74  76
1720809605,619:    -40  74  76
1720809605,619:    -22  74  76
1720809605,619:      5  74  76
1720809605,619:     14  74  76
1720809605,619:     -2  74  76
1720809605,619:    -17  74  76
1720809605,619:     -6  74  76
1720809605,619:     20  74  76
1720809605,619:     33  74  76
1720809605,619:     25  74  76
1720809605,619:     14  74  76
1720809605,619:     21  74  76
1720809605,651:     37  74  76
1720809605,651:     37  74  76
1720809605,651:     13  74  76
1720809605,651:    -13  74  76
1720809605,651:    -16  74  76
1720809605,651:     -1  74  76
1720809605,651:      4  74  76
1720809605,651:    -11  74  76
1720809605,651:    -26  74  76
1720809605,651:    -15  74  76
1720809605,651:     12  74  76
1720809605,651:     26  74  76
1720809605,651:     17  74  76
1720809605,651:      9  74  76
1720809605,651:     30  74  76
1720809605,651:     68  74  76
1720809605,651:     75  74  76
1720809605,651:     27  74  76
1720809605,651:    -46  74  76
1720809605,651:    -91  74  76
1720809605,651:   -103  74  76
1720809605,651:   -140  74  76
1720809605,683:   -251  74  76
1720809605,683:   -404  74  76
1720809605,683:   -502  74  76
1720809605,683:   -466  74  76
1720809605,683:   -281  74  76
1720809605,683:     36  74  76
1720809605,683:    525  74  76
1720809605,683:   1296  74  76
1720809605,683:   2419  74  76
1720809605,683:   3793  74  76
1720809605,683:   5150  74  76
1720809605,683:   6237  74  76
1720809605,683:   6999  74  76
1720809605,683:   7571  74  76
1720809605,683:   8063  74  76
1720809605,715:   8332  75  76
1720809605,715:   8041  75  76
1720809605,715:   6974  75  76
1720809605,715:   5302  75  76
1720809605,715:   3516  75  76
1720809605,715:   2051  75  76
1720809605,715:    990  75  76
1720809605,715:    114  75  76
1720809605,715:   -782  75  76
1720809605,715:  -1644  75  76
1720809605,715:  -2226  75  76
1720809605,715:  -2350  75  76
1720809605,715:  -2079  75  76
1720809605,715:  -1656  75  76
1720809605,715:  -1324  75  76
1720809605,747:  -1187  75  76
1720809605,747:  -1200  75  76
1720809605,747:  -1257  75  76
1720809605,747:  -1275  75  76
1720809605,747:  -1237  75  76
1720809605,747:  -1176  75  76
1720809605,747:  -1139  75  76
1720809605,747:  -1147  75  76
1720809605,747:  -1191  75  76
1720809605,747:  -1245  75  76
1720809605,747:  -1295  75  76
1720809605,747:  -1331  75  76
1720809605,747:  -1339  75  76
1720809605,747:  -1314  75  76
1720809605,747:  -1280  75  76
1720809605,779:  -1271  75  76
1720809605,779:  -1291  75  76
1720809605,779:  -1306  75  76
1720809605,779:  -1280  75  76
1720809605,779:  -1214  75  76
1720809605,779:  -1142  75  76
1720809605,779:  -1089  75  76
1720809605,779:  -1048  75  76
1720809605,779:   -998  75  76
1720809605,779:   -947  75  76
1720809605,779:   -922  75  76
1720809605,779:   -937  75  76
1720809605,779:   -965  75  76
1720809605,779:   -962  75  76
1720809605,779:   -915  75  76
1720809605,779:   -853  75  76
1720809605,779:   -812  75  76
1720809605,779:   -795  75  76
1720809605,779:   -777  75  76
1720809605,779:   -744  75  76
1720809605,779:   -711  75  76
1720809605,779:   -696  75  76
1720809605,779:   -696  75  76
1720809605,811:   -687  75  76
1720809605,811:   -655  75  76
1720809605,811:   -616  75  76
1720809605,811:   -593  75  76
1720809605,811:   -587  75  76
1720809605,811:   -581  75  76
1720809605,811:   -558  75  76
1720809605,811:   -528  75  76
1720809605,811:   -510  75  76
1720809605,811:   -504  75  76
1720809605,811:   -489  75  76
1720809605,811:   -458  75  76
1720809605,811:   -424  75  76
1720809605,811:   -409  75  76
1720809605,811:   -411  75  76
1720809605,843:   -406  75  76
1720809605,843:   -382  75  76
1720809605,843:   -352  75  76
1720809605,843:   -336  75  76
1720809605,843:   -334  75  76
1720809605,843:   -322  75  76
1720809605,843:   -288  75  76
1720809605,843:   -252  75  76
1720809605,843:   -238  75  76
1720809605,843:   -248  75  76
1720809605,843:   -254  75  76
1720809605,843:   -237  75  76
1720809605,843:   -210  75  76
1720809605,843:   -196  75  76
1720809605,843:   -201  75  76
1720809605,875:   -204  75  76
1720809605,875:   -187  75  76
1720809605,875:   -161  75  76
1720809605,875:   -150  75  76
1720809605,875:   -159  75  76
1720809605,875:   -168  75  76
1720809605,875:   -156  75  76
1720809605,875:   -131  75  76
1720809605,875:   -115  75  76
1720809605,875:   -119  75  76
1720809605,875:   -127  75  76
1720809605,875:   -118  75  76
1720809605,875:    -95  75  76
1720809605,875:    -84  75  76
1720809605,875:    -96  75  76
1720809605,907:   -116  75  76
1720809605,907:   -117  75  76
1720809605,907:    -97  75  76
1720809605,907:    -82  75  76
1720809605,907:    -89  75  76
1720809605,907:   -108  75  76
1720809605,907:   -114  75  76
1720809605,907:   -101  75  76
1720809605,907:    -91  75  76
1720809605,907:   -104  75  76
1720809605,907:   -134  75  76
1720809605,907:   -150  75  76
1720809605,907:   -138  75  76
1720809605,907:   -114  75  76
1720809605,907:   -102  75  76
1720809605,939:   -107  75  76
1720809605,939:   -108  75  76
1720809605,939:    -91  75  76
1720809605,939:    -69  75  76
1720809605,939:    -62  75  76
1720809605,939:    -73  75  76
1720809605,939:    -77  75  76
1720809605,939:    -60  75  76
1720809605,939:    -30  75  76
1720809605,939:    -11  75  76
1720809605,939:     -8  75  76
1720809605,939:     -3  75  76
1720809605,939:     17  75  76
1720809605,939:     43  75  76
1720809605,939:     54  75  76
1720809605,971:     47  75  76
1720809605,971:     42  75  76
1720809605,971:     53  75  76
1720809605,971:     71  75  76
1720809605,971:     77  75  76
1720809605,971:     67  75  76
1720809605,971:     59  75  76
1720809605,971:     66  75  76
1720809605,971:     77  75  76
1720809605,971:     70  75  76
1720809605,971:     43  75  76
1720809605,971:     16  75  76
1720809605,971:      6  75  76
1720809605,971:      8  75  76
1720809605,971:      4  75  76
1720809606,003:    -10  75  76
1720809606,003:    -20  75  76
1720809606,003:    -14  75  76
1720809606,003:     -5  75  76
1720809606,003:     -9  75  76
1720809606,003:    -29  75  76
1720809606,003:    -47  75  76
1720809606,003:    -47  75  76
1720809606,003:    -36  75  76
1720809606,003:    -36  75  76
1720809606,003:    -53  75  76
1720809606,003:    -67  75  76
1720809606,003:    -60  75  76
1720809606,003:    -39  75  76
1720809606,003:    -29  75  76
1720809606,003:    -43  75  76
1720809606,003:    -61  75  76
1720809606,003:    -59  75  76
1720809606,003:    -35  75  76
1720809606,003:    -14  75  76
1720809606,003:    -17  75  76
1720809606,003:    -30  75  76
1720809606,035:    -26  75  76
1720809606,035:     -2  75  76
1720809606,035:     21  75  76
1720809606,035:     18  75  76
1720809606,035:     -3  75  76
1720809606,035:    -13  75  76
1720809606,035:      0  75  76
1720809606,035:     20  75  76
1720809606,035:     23  75  76
1720809606,035:      7  75  76
1720809606,035:     -1  75  76
1720809606,035:     14  75  76
1720809606,035:     34  75  76
1720809606,035:     33  75  76
1720809606,035:     10  75  76
1720809606,066:     -9  75  76
1720809606,066:      0  75  76
1720809606,066:     27  75  76
1720809606,066:     46  75  76
1720809606,066:     42  75  76
1720809606,066:     33  75  76
1720809606,066:     38  75  76
1720809606,066:     52  75  76
1720809606,066:     56  75  76
1720809606,066:     43  75  76
1720809606,066:     30  75  76
1720809606,066:     34  75  76
1720809606,066:     48  75  76
1720809606,066:     51  75  76
1720809606,066:     42  75  76
1720809606,096:     36  75  76
1720809606,096:     46  75  76
1720809606,096:     60  75  76
1720809606,096:     57  75  76
1720809606,096:     37  75  76
1720809606,096:     19  75  76
1720809606,096:     21  75  76
1720809606,096:     34  75  76
1720809606,126:     37  75  76
1720809606,126:     23  75  76
1720809606,126:     12  75  76
1720809606,126:     18  75  76
1720809606,126:     32  75  76
1720809606,126:     31  75  76
1720809606,126:      9  75  76
1720809606,126:    -15  75  76
1720809606,126:    -19  75  76
1720809606,126:     -9  75  76
1720809606,126:     -7  75  76
1720809606,126:    -21  75  76
1720809606,126:    -36  75  76
1720809606,126:    -32  75  76
1720809606,126:    -13  75  76
1720809606,126:     -3  75  76
1720809606,126:    -16  75  76
1720809606,126:    -35  75  76
1720809606,126:    -35  75  76
1720809606,126:    -13  75  76
1720809606,126:      4  75  76
1720809606,126:     -1  75  76
1720809606,159:    -18  75  76
1720809606,159:    -21  75  76
1720809606,159:     -6  75  76
1720809606,159:      6  75  76
1720809606,159:     -5  75  76
1720809606,159:    -30  75  76
1720809606,159:    -41  75  76
1720809606,159:    -30  75  76
1720809606,159:    -13  75  76
1720809606,159:    -13  75  76
1720809606,159:    -25  75  76
1720809606,159:    -27  75  76
1720809606,159:    -12  75  76
1720809606,159:      3  75  76
1720809606,159:      0  75  76
1720809606,207:    -18  75  76
1720809606,207:    -31  75  76
1720809606,207:    -28  75  76
1720809606,207:    -20  75  76
1720809606,207:    -25  75  76
1720809606,207:    -38  75  76
1720809606,207:    -40  75  76
1720809606,207:    -25  75  76
1720809606,207:     -9  75  76
1720809606,207:    -14  75  76
1720809606,207:    -36  75  76
1720809606,207:    -50  75  76
1720809606,207:    -40  75  76
1720809606,207:    -18  75  76
1720809606,207:    -11  75  76
1720809606,237:    -23  75  76
1720809606,237:    -31  75  76
1720809606,237:    -18  75  76
1720809606,237:      3  75  76
1720809606,237:      5  75  76
1720809606,237:    -18  75  76
1720809606,237:    -42  75  76
1720809606,237:    -41  75  76
1720809606,237:    -18  75  76
1720809606,237:     -6  75  76
1720809606,237:    -18  75  76
1720809606,237:    -35  75  76
1720809606,237:    -31  75  76
1720809606,237:     -8  75  76
1720809606,237:      5  75  76
1720809606,237:    -11  75  76
1720809606,237:    -35  75  76
1720809606,237:    -39  75  76
1720809606,237:    -18  75  76
1720809606,237:      1  75  76
1720809606,237:     -3  75  76
1720809606,237:    -16  75  76
1720809606,237:    -13  75  76
1720809606,267:     10  75  76
1720809606,267:     24  75  76
1720809606,267:      9  75  76
1720809606,267:    -21  75  76
1720809606,267:    -34  75  76
1720809606,267:    -17  75  76
1720809606,267:      6  75  76
1720809606,267:      5  75  76
1720809606,267:    -13  75  76
1720809606,267:    -18  75  76
1720809606,267:      5  75  76
1720809606,267:     37  75  76
1720809606,267:     46  75  76
1720809606,267:     29  75  76
1720809606,267:     15  75  76
1720809606,299:     25  75  76
1720809606,299:     50  75  76
1720809606,299:     64  75  76
1720809606,299:     61  75  76
1720809606,299:     57  75  76
1720809606,299:     66  75  76
1720809606,299:     77  75  76
1720809606,299:     69  75  76
1720809606,299:     44  75  76
1720809606,299:     25  75  76
1720809606,299:     26  75  76
1720809606,299:     34  75  76
1720809606,299:     26  75  76
1720809606,299:      4  75  76
1720809606,299:     -7  75  76
1720809606,331:     13  75  76
1720809606,331:     53  75  76
1720809606,331:     82  75  76
1720809606,331:     91  75  76
1720809606,331:     98  75  76
1720809606,331:    124  75  76
1720809606,331:    161  75  76
1720809606,331:    187  75  76
1720809606,331:    193  75  76
1720809606,331:    198  75  76
1720809606,331:    217  75  76
1720809606,331:    236  75  76
1720809606,331:    226  75  76
1720809606,331:    183  75  76
1720809606,331:    140  75  76
1720809606,331:    129  75  76
1720809606,331:    142  75  76
1720809606,331:    142  75  76
1720809606,331:    109  75  76
1720809606,331:     64  75  76
1720809606,331:     39  75  76
1720809606,331:     40  75  76
1720809606,363:     37  75  76
1720809606,363:      9  75  76
1720809606,363:    -29  75  76
1720809606,363:    -50  75  76
1720809606,363:    -49  75  76
1720809606,363:    -47  75  76
1720809606,363:    -59  75  76
1720809606,363:    -75  75  76
1720809606,363:    -73  75  76
1720809606,363:    -53  75  76
1720809606,363:    -42  75  76
1720809606,363:    -57  75  76
1720809606,363:    -84  75  76
1720809606,363:    -92  75  76
1720809606,363:    -72  75  76
1720809606,395:    -48  75  76
1720809606,395:    -45  75  76
1720809606,395:    -56  75  76
1720809606,395:    -56  75  76
1720809606,395:    -36  75  76
1720809606,395:    -18  75  76
1720809606,395:    -25  75  76
1720809606,395:    -50  75  76
1720809606,426:    -62  75  76
1720809606,426:    -47  75  76
1720809606,426:    -24  75  76
1720809606,426:    -22  75  76
1720809606,426:    -37  75  76
1720809606,426:    -44  75  76
1720809606,426:    -27  75  76
1720809606,426:     -6  75  76
1720809606,426:    -10  75  76
1720809606,426:    -39  75  76
1720809606,426:    -63  75  76
1720809606,426:    -60  75  76
1720809606,426:    -41  75  76
1720809606,426:    -36  75  76
1720809606,426:    -54  75  76
1720809606,426:    -67  75  76
1720809606,426:    -54  75  76
1720809606,426:    -29  75  76
1720809606,426:    -17  75  76
1720809606,457:    -23  75  76
1720809606,457:    -21  75  76
1720809606,457:     10  75  76
1720809606,457:     46  75  76
1720809606,457:     42  75  76
1720809606,457:    -18  75  76
1720809606,457:    -91  75  76
1720809606,457:   -128  75  76
1720809606,457:   -130  75  76
1720809606,457:   -157  75  76
1720809606,457:   -255  75  76
1720809606,457:   -387  75  76
1720809606,457:   -464  75  76
1720809606,457:   -411  75  76
1720809606,457:   -211  75  76
1720809606,457:    121  75  76
1720809606,457:    620  75  76
1720809606,457:   1385  75  76
1720809606,457:   2488  75  76
1720809606,457:   3842  75  76
1720809606,457:   5188  75  76
1720809606,457:   6253  75  76
1720809606,457:   6962  75  76
1720809606,488:   7461  77  76
1720809606,488:   7891  77  76
1720809606,488:   8132  77  76
1720809606,488:   7826  77  76
1720809606,488:   6721  77  76
1720809606,488:   4994  77  76
1720809606,488:   3173  77  76
1720809606,518:   1722  77  76
1720809606,518:    705  77  76
1720809606,518:   -138  77  76
1720809606,518:  -1018  77  76
1720809606,518:  -1855  77  76
1720809606,518:  -2384  77  76
1720809606,518:  -2447  77  76
1720809606,518:  -2138  77  76
1720809606,518:  -1704  77  76
1720809606,518:  -1364  77  76
1720809606,518:  -1205  77  76
1720809606,518:  -1189  77  76
1720809606,518:  -1229  77  76
1720809606,518:  -1247  77  76
1720809606,518:  -1210  77  76
1720809606,518:  -1139  77  76
1720809606,518:  -1079  77  76
1720809606,518:  -1060  77  76
1720809606,518:  -1083  77  76
1720809606,518:  -1130  77  76
1720809606,518:  -1180  77  76
1720809606,518:  -1216  77  76
1720809606,518:  -1220  77  76
1720809606,548:  -1193  77  76
1720809606,548:  -1165  77  76
1720809606,548:  -1169  77  76
1720809606,548:  -1197  77  76
1720809606,548:  -1210  77  76
1720809606,548:  -1181  77  76
1720809606,548:  -1123  77  76
1720809606,548:  -1064  77  76
1720809606,548:  -1017  77  76
1720809606,548:   -969  77  76
1720809606,548:   -912  77  76
1720809606,548:   -862  77  76
1720809606,548:   -844  77  76
1720809606,548:   -856  77  76
1720809606,548:   -872  77  76
1720809606,578:   -860  77  76
1720809606,578:   -822  77  76
1720809606,578:   -780  77  76
1720809606,578:   -749  77  76
1720809606,578:   -722  77  76
1720809606,578:   -686  77  76
1720809606,578:   -648  77  76
1720809606,578:   -624  77  76
1720809606,578:   -621  77  76
1720809606,578:   -620  77  76
1720809606,578:   -598  77  76
1720809606,578:   -557  77  76
1720809606,578:   -520  77  76
1720809606,578:   -504  77  76
1720809606,578:   -495  77  76
1720809606,609:   -473  77  76
1720809606,609:   -437  77  76
1720809606,609:   -409  77  76
1720809606,609:   -403  77  76
1720809606,609:   -405  77  76
1720809606,609:   -387  77  76
1720809606,609:   -348  77  76
1720809606,641:   -316  77  76
1720809606,641:   -313  77  76
1720809606,641:   -326  77  76
1720809606,641:   -323  77  76
1720809606,641:   -294  77  76
1720809606,641:   -262  77  76
1720809606,641:   -253  77  76
1720809606,641:   -262  77  76
1720809606,641:   -262  77  76
1720809606,641:   -237  77  76
1720809606,641:   -205  77  76
1720809606,641:   -195  77  76
1720809606,641:   -205  77  76
1720809606,641:   -210  77  76
1720809606,641:   -192  77  76
1720809606,641:   -162  77  76
1720809606,641:   -146  77  76
1720809606,641:   -149  77  76
1720809606,641:   -152  77  76
1720809606,641:   -135  77  76
1720809606,641:   -110  77  76
1720809606,641:    -98  77  76
1720809606,641:   -104  77  76
1720809606,673:   -110  77  76
1720809606,673:    -99  77  76
1720809606,673:    -81  77  76
1720809606,673:    -75  77  76
1720809606,673:    -83  77  76
1720809606,673:    -86  77  76
1720809606,673:    -68  77  76
1720809606,673:    -47  77  76
1720809606,673:    -50  77  76
1720809606,673:    -81  77  76
1720809606,673:   -110  77  76
1720809606,673:   -111  77  76
1720809606,673:    -94  77  76
1720809606,673:    -93  77  76
1720809606,673:   -120  77  76
1720809606,705:   -151  77  76
1720809606,705:   -156  77  76
1720809606,705:   -139  77  76
1720809606,705:   -135  77  76
1720809606,705:   -160  77  76
1720809606,705:   -192  77  76
1720809606,705:   -199  77  76
1720809606,705:   -176  77  76
1720809606,705:   -154  77  76
1720809606,705:   -157  77  76
1720809606,705:   -174  77  76
1720809606,705:   -174  77  76
1720809606,705:   -150  77  76
1720809606,705:   -122  77  76
1720809606,705:   -115  77  76
1720809606,737:   -121  77  76
1720809606,737:   -117  77  76
1720809606,737:    -91  77  76
1720809606,737:    -61  77  76
1720809606,737:    -42  77  76
1720809606,737:    -31  77  76
1720809606,737:    -10  77  76
1720809606,737:     20  77  76
1720809606,737:     36  77  76
1720809606,737:     24  77  76
1720809606,737:      1  77  76
1720809606,737:     -1  77  76
1720809606,737:     23  77  76
1720809606,737:     47  77  76
1720809606,737:     45  77  76
1720809606,737:     26  77  76
1720809606,737:     19  77  76
1720809606,737:     38  77  76
1720809606,737:     61  77  76
1720809606,737:     57  77  76
1720809606,737:     29  77  76
1720809606,737:      6  77  76
1720809606,767:      4  77  76
1720809606,767:      9  77  76
1720809606,767:      1  77  76
1720809606,767:    -22  77  76
1720809606,767:    -36  77  76
1720809606,767:    -29  77  76
1720809606,767:    -16  77  76
1720809606,767:    -21  77  76
1720809606,767:    -45  77  76
1720809606,767:    -61  77  76
1720809606,767:    -52  77  76
1720809606,767:    -31  77  76
1720809606,767:    -23  77  76
1720809606,767:    -35  77  76
1720809606,767:    -45  77  76
1720809606,797:    -35  77  76
1720809606,797:    -16  77  76
1720809606,797:    -14  77  76
1720809606,797:    -34  77  76
1720809606,797:    -53  77  76
1720809606,797:    -51  77  76
1720809606,797:    -31  77  76
1720809606,797:    -19  77  76
1720809606,797:    -26  77  76
1720809606,797:    -36  77  76
1720809606,797:    -27  77  76
1720809606,797:     -3  77  76
1720809606,797:     11  77  76
1720809606,797:      1  77  76
1720809606,797:    -18  77  76
1720809606,829:    -21  77  76
1720809606,829:     -6  77  76
1720809606,829:      7  77  76
1720809606,829:      4  77  76
1720809606,829:     -4  77  76
1720809606,829:      4  77  76
1720809606,829:     24  77  76
1720809606,829:     34  77  76
1720809606,829:     20  77  76
1720809606,829:     -2  77  76
1720809606,829:     -5  77  76
1720809606,829:     11  77  76
1720809606,829:     23  77  76
1720809606,829:     12  77  76
1720809606,829:     -6  77  76
1720809606,861:     -7  77  76
1720809606,861:     14  77  76
1720809606,861:     31  77  76
1720809606,861:     21  77  76
1720809606,861:     -1  77  76
1720809606,861:     -7  77  76
1720809606,861:     12  77  76
1720809606,861:     32  77  76
1720809606,861:     29  77  76
1720809606,861:      9  77  76
1720809606,861:      3  77  76
1720809606,861:     20  77  76
1720809606,861:     39  77  76
1720809606,861:     33  77  76
1720809606,861:      3  77  76
1720809606,891:    -20  77  76
1720809606,891:    -17  77  76
1720809606,891:     -2  77  76
1720809606,891:      2  77  76
1720809606,891:     -9  77  76
1720809606,891:    -14  77  76
1720809606,891:     -1  77  76
1720809606,891:     19  77  76
1720809606,891:     22  77  76
1720809606,891:      5  77  76
1720809606,891:     -8  77  76
1720809606,891:      1  77  76
1720809606,891:     21  77  76
1720809606,891:     27  77  76
1720809606,891:     15  77  76
1720809606,921:      6  77  76
1720809606,921:     18  77  76
1720809606,921:     40  77  76
1720809606,921:     42  77  76
1720809606,921:     18  77  76
1720809606,921:     -8  77  76
1720809606,921:     -8  77  76
1720809606,921:     10  77  76
1720809606,921:     19  77  76
1720809606,921:      5  77  76
1720809606,921:    -11  77  76
1720809606,921:     -6  77  76
1720809606,921:     18  77  76
1720809606,921:     31  77  76
1720809606,921:     19  77  76
1720809606,952:      0  77  76
1720809606,952:     -2  77  76
1720809606,952:     15  77  76
1720809606,952:     26  77  76
1720809606,952:     18  77  76
1720809606,952:      3  77  76
1720809606,952:      5  77  76
1720809606,952:     23  77  76
1720809606,952:     35  77  76
1720809606,952:     24  77  76
1720809606,952:      4  77  76
1720809606,952:     -1  77  76
1720809606,952:     15  77  76
1720809606,952:     32  77  76
1720809606,952:     33  77  76
1720809606,984:     22  77  76
1720809606,984:     20  77  76
1720809606,984:     32  77  76
1720809606,984:     43  77  76
1720809606,984:     35  77  76
1720809606,984:     15  77  76
1720809606,984:      6  77  76
1720809606,984:     18  77  76
1720809606,984:     34  77  76
1720809606,984:     33  77  76
1720809606,984:     16  77  76
1720809606,984:      7  77  76
1720809606,984:     17  77  76
1720809606,984:     30  77  76
1720809606,984:     23  77  76
1720809606,984:     -1  77  76
1720809606,984:    -14  77  76
1720809606,984:     -3  77  76
1720809606,984:     18  77  76
1720809606,984:     21  77  76
1720809606,984:      8  77  76
1720809606,984:      1  77  76
1720809606,984:     16  77  76
1720809607,016:     34  77  76
1720809607,016:     30  77  76
1720809607,016:      6  77  76
1720809607,016:     -9  77  76
1720809607,016:      1  77  76
1720809607,016:     21  77  76
1720809607,016:     26  77  76
1720809607,016:     13  77  76
1720809607,016:      6  77  76
1720809607,016:     23  77  76
1720809607,016:     48  77  76
1720809607,016:     55  77  76
1720809607,016:     42  77  76
1720809607,016:     31  77  76
1720809607,016:     37  77  76
1720809607,048:     53  77  76
1720809607,048:     54  77  76
1720809607,048:     38  77  76
1720809607,048:     24  77  76
1720809607,048:     29  77  76
1720809607,048:     43  77  76
1720809607,048:     42  77  76
1720809607,079:     18  77  76
1720809607,079:     -7  77  76
1720809607,079:     -7  77  76
1720809607,079:     14  77  76
1720809607,079:     32  77  76
1720809607,079:     31  77  76
1720809607,079:     23  77  76
1720809607,079:     31  77  76
1720809607,079:     57  77  76
1720809607,079:     77  77  76
1720809607,079:     74  77  76
1720809607,079:     60  77  76
1720809607,079:     59  77  76
1720809607,079:     75  77  76
1720809607,079:     91  77  76
1720809607,079:     88  77  76
1720809607,079:     74  77  76
1720809607,079:     71  77  76
1720809607,079:     82  77  76
1720809607,079:     90  77  76
1720809607,079:     73  77  76
1720809607,079:     40  77  76
1720809607,079:     17  77  76
1720809607,112:     17  77  76
1720809607,112:     31  77  76
1720809607,112:     44  77  76
1720809607,112:     54  77  76
1720809607,112:     79  77  76
1720809607,112:    123  77  76
1720809607,112:    168  77  76
1720809607,112:    188  77  76
1720809607,112:    183  77  76
1720809607,112:    176  77  76
1720809607,112:    188  77  76
1720809607,112:    210  77  76
1720809607,112:    212  77  76
1720809607,112:    181  77  76
1720809607,112:    139  77  76
1720809607,142:    115  77  76
1720809607,142:    111  77  76
1720809607,142:    106  77  76
1720809607,142:     80  77  76
1720809607,142:     45  77  76
1720809607,142:     23  77  76
1720809607,142:     16  77  76
1720809607,142:      5  77  76
1720809607,142:    -22  77  76
1720809607,142:    -52  77  76
1720809607,142:    -64  77  76
1720809607,142:    -61  77  76
1720809607,142:    -69  77  76
1720809607,142:   -103  77  76
1720809607,142:   -144  77  76
1720809607,172:   -161  77  76
1720809607,172:   -147  77  76
1720809607,172:   -129  77  76
1720809607,172:   -128  77  76
1720809607,172:   -138  77  76
1720809607,172:   -133  77  76
1720809607,172:   -109  77  76
1720809607,172:    -92  77  76
1720809607,172:   -100  77  76
1720809607,172:   -117  77  76
1720809607,172:   -117  77  76
1720809607,172:    -93  77  76
1720809607,172:    -71  77  76
1720809607,172:    -75  77  76
1720809607,172:    -95  77  76
1720809607,202:   -101  77  76
1720809607,202:    -80  77  76
1720809607,202:    -54  77  76
1720809607,202:    -55  77  76
1720809607,202:    -77  77  76
1720809607,202:    -93  77  76
1720809607,202:    -82  77  76
1720809607,202:    -60  77  76
1720809607,202:    -54  77  76
1720809607,202:    -68  77  76
1720809607,202:    -80  77  76
1720809607,202:    -71  77  76
1720809607,202:    -52  77  76
1720809607,202:    -47  77  76
1720809607,202:    -62  77  76
1720809607,235:    -78  77  76
1720809607,235:    -74  77  76
1720809607,235:    -54  77  76
1720809607,235:    -37  77  76
1720809607,235:    -29  77  76
1720809607,235:    -14  77  76
1720809607,235:     13  77  76
1720809607,235:     42  77  76
1720809607,235:     49  77  76
1720809607,235:     23  77  76
1720809607,235:    -25  77  76
1720809607,235:    -67  77  76
1720809607,235:    -92  77  76
1720809607,235:   -119  77  76
1720809607,235:   -183  77  76
1720809607,265:   -293  77  76
1720809607,265:   -411  77  76
1720809607,265:   -477  77  76
1720809607,265:   -440  77  76
1720809607,265:   -271  77  76
1720809607,265:     54  77  76
1720809607,265:    595  77  76
1720809607,265:   1429  77  76
1720809607,265:   2579  77  76
1720809607,265:   3940  77  76
1720809607,265:   5294  77  76
1720809607,265:   6429  77  76
1720809607,265:   7272  77  76
1720809607,265:   7893  77  76
1720809607,265:   8353  77  76
1720809607,297:   8537  76  76
1720809607,297:   8179  76  76
1720809607,297:   7099  76  76
1720809607,297:   5450  76  76
1720809607,297:   3686  76  76
1720809607,297:   2233  76  76
1720809607,297:   1189  76  76
1720809607,297:    332  76  76
1720809607,297:   -562  76  76
1720809607,297:  -1439  76  76
1720809607,297:  -2021  76  76
1720809607,297:  -2114  76  76
1720809607,297:  -1810  76  76
1720809607,297:  -1404  76  76
1720809607,297:  -1141  76  76
1720809607,329:  -1070  76  76
1720809607,329:  -1094  76  76
1720809607,329:  -1122  76  76
1720809607,329:  -1130  76  76
1720809607,329:  -1131  76  76
1720809607,329:  -1132  76  76
1720809607,329:  -1134  76  76
1720809607,329:  -1155  76  76
1720809607,329:  -1214  76  76
1720809607,329:  -1299  76  76
1720809607,329:  -1371  76  76
1720809607,329:  -1397  76  76
1720809607,329:  -1377  76  76
1720809607,329:  -1347  76  76
1720809607,329:  -1343  76  76
1720809607,329:  -1363  76  76
1720809607,329:  -1379  76  76
1720809607,329:  -1366  76  76
1720809607,329:  -1328  76  76
1720809607,329:  -1280  76  76
1720809607,329:  -1225  76  76
1720809607,329:  -1158  76  76
1720809607,360:  -1082  76  76
1720809607,360:  -1020  76  76
1720809607,360:   -999  76  76
1720809607,360:  -1015  76  76
1720809607,360:  -1035  76  76
1720809607,360:  -1027  76  76
1720809607,360:   -989  76  76
1720809607,360:   -942  76  76
1720809607,360:   -900  76  76
1720809607,360:   -857  76  76
1720809607,360:   -805  76  76
1720809607,360:   -756  76  76
1720809607,360:   -734  76  76
1720809607,360:   -743  76  76
1720809607,360:   -756  76  76
1720809607,390:   -743  76  76
1720809607,390:   -707  76  76
1720809607,390:   -674  76  76
1720809607,390:   -660  76  76
1720809607,390:   -650  76  76
1720809607,390:   -620  76  76
1720809607,390:   -576  76  76
1720809607,390:   -547  76  76
1720809607,390:   -545  76  76
1720809607,390:   -550  76  76
1720809607,390:   -529  76  76
1720809607,390:   -486  76  76
1720809607,390:   -448  76  76
1720809607,390:   -437  76  76
1720809607,390:   -434  76  76
1720809607,421:   -412  76  76
1720809607,421:   -373  76  76
1720809607,421:   -347  76  76
1720809607,421:   -351  76  76
1720809607,421:   -364  76  76
1720809607,421:   -354  76  76
1720809607,421:   -317  76  76
1720809607,421:   -285  76  76
1720809607,421:   -280  76  76
1720809607,421:   -287  76  76
1720809607,421:   -274  76  76
1720809607,421:   -235  76  76
1720809607,421:   -200  76  76
1720809607,421:   -196  76  76
1720809607,421:   -215  76  76
1720809607,453:   -223  76  76
1720809607,453:   -201  76  76
1720809607,453:   -164  76  76
1720809607,453:   -142  76  76
1720809607,453:   -138  76  76
1720809607,453:   -134  76  76
1720809607,453:   -116  76  76
1720809607,453:    -92  76  76
1720809607,453:    -83  76  76
1720809607,453:    -88  76  76
1720809607,453:    -90  76  76
1720809607,453:    -78  76  76
1720809607,453:    -65  76  76
1720809607,485:    -66  76  76
1720809607,485:    -78  76  76
1720809607,485:    -79  76  76
1720809607,485:    -61  76  76
1720809607,485:    -44  76  76
1720809607,485:    -51  76  76
1720809607,485:    -83  76  76
1720809607,485:   -109  76  76
1720809607,485:   -107  76  76
1720809607,485:    -87  76  76
1720809607,485:    -78  76  76
1720809607,485:    -94  76  76
1720809607,485:   -115  76  76
1720809607,485:   -117  76  76
1720809607,485:   -102  76  76
1720809607,515:    -97  76  76
1720809607,515:   -115  76  76
1720809607,515:   -140  76  76
1720809607,515:   -147  76  76
1720809607,515:   -134  76  76
1720809607,515:   -121  76  76
1720809607,515:   -124  76  76
1720809607,515:   -134  76  76
1720809607,515:   -125  76  76
1720809607,515:    -97  76  76
1720809607,515:    -73  76  76
1720809607,515:    -73  76  76
1720809607,515:    -85  76  76
1720809607,515:    -85  76  76
1720809607,515:    -63  76  76
1720809607,515:    -37  76  76
1720809607,515:    -27  76  76
1720809607,515:    -30  76  76
1720809607,515:    -25  76  76
1720809607,515:     -5  76  76
1720809607,515:     15  76  76
1720809607,515:     17  76  76
1720809607,545:      6  76  76
1720809607,545:      5  76  76
1720809607,545:     22  76  76
1720809607,545:     40  76  76
1720809607,545:     39  76  76
1720809607,545:     24  76  76
1720809607,545:     16  76  76
1720809607,545:     28  76  76
1720809607,545:     43  76  76
1720809607,545:     38  76  76
1720809607,545:     17  76  76
1720809607,545:      4  76  76
1720809607,545:     15  76  76
1720809607,545:     35  76  76
1720809607,545:     41  76  76
1720809607,576:     29  76  76
1720809607,576:     21  76  76
1720809607,576:     32  76  76
1720809607,576:     46  76  76
1720809607,576:     40  76  76
1720809607,576:     14  76  76
1720809607,576:     -8  76  76
1720809607,576:     -7  76  76
1720809607,576:      8  76  76
1720809607,576:     13  76  76
1720809607,576:      3  76  76
1720809607,576:     -3  76  76
1720809607,576:     11  76  76
1720809607,576:     35  76  76
1720809607,576:     39  76  76
1720809607,606:     21  76  76
1720809607,606:      3  76  76
1720809607,606:     10  76  76
1720809607,606:     31  76  76
1720809607,606:     39  76  76
1720809607,606:     27  76  76
1720809607,606:     14  76  76
1720809607,606:     23  76  76
1720809607,606:     46  76  76
1720809607,606:     55  76  76
1720809607,606:     36  76  76
1720809607,606:     13  76  76
1720809607,606:     13  76  76
1720809607,606:     33  76  76
1720809607,606:     48  76  76
1720809607,637:     41  76  76
1720809607,637:     25  76  76
1720809607,637:     28  76  76
1720809607,637:     51  76  76
1720809607,637:     70  76  76
1720809607,637:     63  76  76
1720809607,637:     41  76  76
1720809607,637:     29  76  76
1720809607,637:     38  76  76
1720809607,637:     52  76  76
1720809607,637:     54  76  76
1720809607,637:     44  76  76
1720809607,637:     41  76  76
1720809607,637:     51  76  76
1720809607,637:     57  76  76
1720809607,668:     44  76  76
1720809607,668:     22  76  76
1720809607,668:     12  76  76
1720809607,668:     20  76  76
1720809607,668:     29  76  76
1720809607,668:     20  76  76
1720809607,668:      3  76  76
1720809607,668:     -1  76  76
1720809607,668:     17  76  76
1720809607,668:     35  76  76
1720809607,668:     31  76  76
1720809607,668:     10  76  76
1720809607,668:     -2  76  76
1720809607,668:      9  76  76
1720809607,668:     26  76  76
1720809607,699:     25  76  76
1720809607,699:      8  76  76
1720809607,699:     -2  76  76
1720809607,699:      8  76  76
1720809607,699:     21  76  76
1720809607,699:     13  76  76
1720809607,699:    -14  76  76
1720809607,699:    -33  76  76
1720809607,699:    -28  76  76
1720809607,699:    -15  76  76
1720809607,699:    -14  76  76
1720809607,699:    -28  76  76
1720809607,699:    -34  76  76
1720809607,699:    -21  76  76
1720809607,699:     -5  76  76
1720809607,729:     -8  76  76
1720809607,729:    -29  76  76
1720809607,729:    -43  76  76
1720809607,729:    -35  76  76
1720809607,729:    -18  76  76
1720809607,729:    -16  76  76
1720809607,729:    -29  76  76
1720809607,729:    -35  76  76
1720809607,729:    -21  76  76
1720809607,729:     -4  76  76
1720809607,729:     -8  76  76
1720809607,729:    -33  76  76
1720809607,729:    -56  76  76
1720809607,729:    -56  76  76
1720809607,729:    -43  76  76
1720809607,759:    -40  76  76
1720809607,759:    -53  76  76
1720809607,759:    -64  76  76
1720809607,759:    -56  76  76
1720809607,759:    -38  76  76
1720809607,759:    -32  76  76
1720809607,759:    -45  76  76
1720809607,759:    -58  76  76
1720809607,759:    -53  76  76
1720809607,759:    -36  76  76
1720809607,759:    -28  76  76
1720809607,759:    -39  76  76
1720809607,759:    -50  76  76
1720809607,759:    -39  76  76
1720809607,759:    -12  76  76
1720809607,759:      0  76  76
1720809607,759:    -20  76  76
1720809607,759:    -50  76  76
1720809607,759:    -57  76  76
1720809607,759:    -35  76  76
1720809607,759:    -10  76  76
1720809607,759:    -12  76  76
1720809607,759:    -31  76  76
1720809607,789:    -35  76  76
1720809607,789:    -11  76  76
1720809607,789:     15  76  76
1720809607,789:     15  76  76
1720809607,789:    -10  76  76
1720809607,789:    -29  76  76
1720809607,789:    -21  76  76
1720809607,821:      3  76  76
1720809607,821:     12  76  76
1720809607,821:      0  76  76
1720809607,821:     -9  76  76
1720809607,821:      1  76  76
1720809607,821:     21  76  76
1720809607,821:     23  76  76
1720809607,821:      3  76  76
1720809607,821:    -13  76  76
1720809607,821:     -3  76  76
1720809607,821:     21  76  76
1720809607,821:     31  76  76
1720809607,821:     18  76  76
1720809607,821:      8  76  76
1720809607,821:     23  76  76
1720809607,821:     54  76  76
1720809607,821:     68  76  76
1720809607,821:     51  76  76
1720809607,821:     24  76  76
1720809607,821:     16  76  76
1720809607,821:     29  76  76
1720809607,821:     36  76  76
1720809607,821:     26  76  76
1720809607,853:     15  76  76
1720809607,853:     22  76  76
1720809607,853:     39  76  76
1720809607,853:     40  76  76
1720809607,853:     18  76  76
1720809607,853:      0  76  76
1720809607,853:     11  76  76
1720809607,853:     43  76  76
1720809607,853:     60  76  76
1720809607,853:     45  76  76
1720809607,853:     22  76  76
1720809607,853:     24  76  76
1720809607,853:     49  76  76
1720809607,853:     65  76  76
1720809607,853:     49  76  76
1720809607,885:     20  76  76
1720809607,885:     10  76  76
1720809607,885:     29  76  76
1720809607,885:     52  76  76
1720809607,885:     55  76  76
1720809607,885:     48  76  76
1720809607,885:     59  76  76
1720809607,917:     89  76  76
1720809607,917:    111  76  76
1720809607,917:     99  76  76
1720809607,917:     66  76  76
1720809607,917:     46  76  76
1720809607,917:     53  76  76
1720809607,917:     65  76  76
1720809607,917:     58  76  76
1720809607,917:     42  76  76
1720809607,917:     45  76  76
1720809607,917:     81  76  76
1720809607,917:    124  76  76
1720809607,917:    146  76  76
1720809607,917:    150  76  76
1720809607,917:    163  76  76
1720809607,917:    199  76  76
1720809607,917:    235  76  76
1720809607,917:    244  76  76
1720809607,917:    227  76  76
1720809607,917:    214  76  76
1720809607,917:    219  76  76
1720809607,917:    223  76  76
1720809607,917:    198  76  76
1720809607,947:    149  76  76
1720809607,947:    112  76  76
1720809607,947:    111  76  76
1720809607,947:    126  76  76
1720809607,947:    120  76  76
1720809607,947:     85  76  76
1720809607,947:     51  76  76
1720809607,947:     49  76  76
1720809607,947:     67  76  76
1720809607,947:     66  76  76
1720809607,947:     26  76  76
1720809607,947:    -27  76  76
1720809607,947:    -54  76  76
1720809607,947:    -46  76  76
1720809607,947:    -33  76  76
1720809607,977:    -42  76  76
1720809607,977:    -61  76  76
1720809607,977:    -65  76  76
1720809607,977:    -51  76  76
1720809607,977:    -42  76  76
1720809607,977:    -57  76  76
1720809607,977:    -83  76  76
1720809607,977:    -92  76  76
1720809607,977:    -81  76  76
1720809607,977:    -71  76  76
1720809607,977:    -79  76  76
1720809607,977:    -91  76  76
1720809607,977:    -84  76  76
1720809607,977:    -60  76  76
1720809607,977:    -46  76  76
1720809608,009:    -57  76  76
1720809608,009:    -77  76  76
1720809608,009:    -77  76  76
1720809608,009:    -58  76  76
1720809608,009:    -45  76  76
1720809608,009:    -55  76  76
1720809608,009:    -70  76  76
1720809608,009:    -68  76  76
1720809608,009:    -46  76  76
1720809608,009:    -34  76  76
1720809608,009:    -46  76  76
1720809608,009:    -70  76  76
1720809608,009:    -77  76  76
1720809608,009:    -63  76  76
1720809608,009:    -51  76  76
1720809608,009:    -57  76  76
1720809608,009:    -68  76  76
1720809608,009:    -61  76  76
1720809608,009:    -31  76  76
1720809608,009:      2  76  76
1720809608,009:     13  76  76
1720809608,009:      8  76  76
1720809608,073:     12  76  76
1720809608,073:     20  76  76
1720809608,073:      4  76  76
1720809608,073:    -52  76  76
1720809608,073:   -118  76  76
1720809608,073:   -157  76  76
1720809608,073:   -180  76  76
1720809608,073:   -245  76  76
1720809608,073:   -378  76  76
1720809608,073:   -519  76  76
1720809608,073:   -549  76  76
1720809608,073:   -388  76  76
1720809608,073:    -39  76  76
1720809608,073:    478  76  76
1720809608,073:   1217  76  76
1720809608,073:   2266  76  76
1720809608,073:   3604  76  76
1720809608,073:   5018  76  76
1720809608,073:   6219  76  76
1720809608,073:   7074  76  76
1720809608,073:   7682  76  76
1720809608,073:   8186  76  76
1720809608,073:   8503  76  76
1720809608,104:   8314  75  76
1720809608,104:   7363  75  76
1720809608,104:   5771  75  76
1720809608,104:   4011  75  76
1720809608,104:   2540  75  76
1720809608,104:   1464  75  76
1720809608,104:    569  75  76
1720809608,104:   -352  75  76
1720809608,104:  -1248  75  76
1720809608,104:  -1870  75  76
1720809608,104:  -2043  75  76
1720809608,104:  -1835  75  76
1720809608,104:  -1474  75  76
1720809608,104:  -1175  75  76
1720809608,104:  -1033  75  76
1720809608,104:  -1032  75  76
1720809608,104:  -1105  75  76
1720809608,104:  -1174  75  76
1720809608,104:  -1187  75  76
1720809608,104:  -1146  75  76
1720809608,104:  -1109  75  76
1720809608,104:  -1133  75  76
1720809608,134:  -1219  75  76
1720809608,134:  -1310  75  76
1720809608,134:  -1360  75  76
1720809608,134:  -1375  75  76
1720809608,134:  -1383  75  76
1720809608,134:  -1392  75  76
1720809608,134:  -1388  75  76
1720809608,134:  -1369  75  76
1720809608,134:  -1353  75  76
1720809608,134:  -1355  75  76
1720809608,134:  -1360  75  76
1720809608,134:  -1331  75  76
1720809608,134:  -1254  75  76
1720809608,134:  -1160  75  76
1720809608,134:  -1095  75  76
1720809608,165:  -1071  75  76
1720809608,165:  -1064  75  76
1720809608,165:  -1049  75  76
1720809608,165:  -1024  75  76
1720809608,165:  -1007  75  76
1720809608,165:   -999  75  76
1720809608,165:   -976  75  76
1720809608,165:   -922  75  76
1720809608,165:   -853  75  76
1720809608,165:   -803  75  76
1720809608,165:   -788  75  76
1720809608,165:   -787  75  76
1720809608,165:   -770  75  76
1720809608,165:   -737  75  76
1720809608,165:   -711  75  76
1720809608,195:   -704  75  76
1720809608,195:   -694  75  76
1720809608,195:   -656  75  76
1720809608,195:   -598  75  76
1720809608,195:   -555  75  76
1720809608,195:   -550  75  76
1720809608,195:   -562  75  76
1720809608,195:   -554  75  76
1720809608,195:   -518  75  76
1720809608,195:   -481  75  76
1720809608,195:   -470  75  76
1720809608,195:   -472  75  76
1720809608,195:   -457  75  76
1720809608,195:   -416  75  76
1720809608,195:   -377  75  76
1720809608,225:   -365  75  76
1720809608,225:   -371  75  76
1720809608,225:   -365  75  76
1720809608,225:   -337  75  76
1720809608,225:   -307  75  76
1720809608,225:   -296  75  76
1720809608,225:   -296  75  76
1720809608,225:   -284  75  76
1720809608,225:   -255  75  76
1720809608,225:   -233  75  76
1720809608,225:   -236  75  76
1720809608,225:   -250  75  76
1720809608,225:   -247  75  76
1720809608,225:   -220  75  76
1720809608,225:   -192  75  76
1720809608,257:   -184  75  76
1720809608,257:   -186  75  76
1720809608,257:   -171  75  76
1720809608,257:   -135  75  76
1720809608,257:   -106  75  76
1720809608,257:   -109  75  76
1720809608,257:   -133  75  76
1720809608,257:   -143  75  76
1720809608,257:   -124  75  76
1720809608,257:    -99  75  76
1720809608,257:    -96  75  76
1720809608,257:   -113  75  76
1720809608,257:   -122  75  76
1720809608,257:   -107  75  76
1720809608,257:    -88  75  76
1720809608,289:    -89  75  76
1720809608,289:   -109  75  76
1720809608,289:   -121  75  76
1720809608,289:   -112  75  76
1720809608,289:    -96  75  76
1720809608,289:    -95  75  76
1720809608,289:   -111  75  76
1720809608,289:   -121  75  76
1720809608,289:   -111  75  76
1720809608,289:    -94  75  76
1720809608,289:    -96  75  76
1720809608,289:   -118  75  76
1720809608,289:   -137  75  76
1720809608,289:   -133  75  76
1720809608,289:   -115  75  76
1720809608,321:   -105  75  76
1720809608,321:   -110  75  76
1720809608,321:   -116  75  76
1720809608,321:   -107  75  76
1720809608,321:    -88  75  76
1720809608,321:    -81  75  76
1720809608,321:    -93  75  76
1720809608,321:   -104  75  76
1720809608,321:    -92  75  76
1720809608,321:    -61  75  76
1720809608,321:    -33  75  76
1720809608,321:    -25  75  76
1720809608,321:    -24  75  76
1720809608,321:    -11  75  76
1720809608,321:     16  75  76
1720809608,353:     34  75  76
1720809608,353:     30  75  76
1720809608,353:     15  75  76
1720809608,353:     12  75  76
1720809608,353:     26  75  76
1720809608,353:     40  75  76
1720809608,353:     36  75  76
1720809608,353:     23  75  76
1720809608,353:     22  75  76
1720809608,353:     40  75  76
1720809608,353:     56  75  76
1720809608,353:     46  75  76
1720809608,353:     17  75  76
1720809608,353:     -3  75  76
1720809608,353:      0  75  76
1720809608,385:     13  75  76
1720809608,385:     12  75  76
1720809608,385:     -5  75  76
1720809608,385:    -14  75  76
1720809608,385:     -2  75  76
1720809608,385:     14  75  76
1720809608,385:     10  75  76
1720809608,385:    -14  75  76
1720809608,385:    -29  75  76
1720809608,385:    -17  75  76
1720809608,385:     10  75  76
1720809608,385:     20  75  76
1720809608,385:      5  75  76
1720809608,385:     -9  75  76
1720809608,385:      0  75  76
1720809608,385:     24  75  76
1720809608,385:     31  75  76
1720809608,385:     11  75  76
1720809608,385:    -15  75  76
1720809608,385:    -21  75  76
1720809608,385:    -10  75  76
1720809608,385:     -5  75  76
1720809608,385:    -16  75  76
1720809608,417:    -26  75  76
1720809608,417:    -16  75  76
1720809608,417:      6  75  76
1720809608,417:     13  75  76
1720809608,417:     -4  75  76
1720809608,417:    -25  75  76
1720809608,417:    -24  75  76
1720809608,417:     -5  75  76
1720809608,417:      8  75  76
1720809608,417:      1  75  76
1720809608,417:    -10  75  76
1720809608,417:     -4  75  76
1720809608,417:     17  75  76
1720809608,417:     29  75  76
1720809608,417:     19  75  76
1720809608,449:      1  75  76
1720809608,449:     -1  75  76
1720809608,449:     14  75  76
1720809608,449:     26  75  76
1720809608,449:     20  75  76
1720809608,449:      8  75  76
1720809608,449:     10  75  76
1720809608,449:     27  75  76
1720809608,449:     37  75  76
1720809608,449:     23  75  76
1720809608,449:      2  75  76
1720809608,449:      2  75  76
1720809608,449:     27  75  76
1720809608,449:     48  75  76
1720809608,449:     44  75  76
1720809608,449:     27  75  76
1720809608,449:     30  75  76
1720809608,449:     55  75  76
1720809608,449:     73  75  76
1720809608,481:     55  75  76
1720809608,481:     17  75  76
1720809608,481:     -2  75  76
1720809608,481:     16  75  76
1720809608,481:     40  75  76
1720809608,481:     35  75  76
1720809608,481:      5  75  76
1720809608,481:    -16  75  76
1720809608,481:     -6  75  76
1720809608,481:     16  75  76
1720809608,481:     17  75  76
1720809608,481:     -3  75  76
1720809608,481:    -16  75  76
1720809608,481:     -3  75  76
1720809608,481:     22  75  76
1720809608,513:     28  75  76
1720809608,513:     13  75  76
1720809608,513:      1  75  76
1720809608,513:      9  75  76
1720809608,513:     22  75  76
1720809608,513:     14  75  76
1720809608,513:    -19  75  76
1720809608,513:    -47  75  76
1720809608,513:    -45  75  76
1720809608,513:    -23  75  76
1720809608,513:    -11  75  76
1720809608,513:    -23  75  76
1720809608,513:    -40  75  76
1720809608,513:    -39  75  76
1720809608,513:    -21  75  76
1720809608,545:    -11  75  76
1720809608,545:    -24  75  76
1720809608,545:    -44  75  76
1720809608,545:    -48  75  76
1720809608,545:    -34  75  76
1720809608,545:    -22  75  76
1720809608,545:    -28  75  76
1720809608,545:    -43  75  76
1720809608,545:    -47  75  76
1720809608,545:    -38  75  76
1720809608,545:    -32  75  76
1720809608,545:    -42  75  76
1720809608,545:    -59  75  76
1720809608,545:    -63  75  76
1720809608,545:    -52  75  76
1720809608,575:    -42  75  76
1720809608,575:    -47  75  76
1720809608,575:    -58  75  76
1720809608,575:    -59  75  76
1720809608,575:    -47  75  76
1720809608,575:    -38  75  76
1720809608,575:    -48  75  76
1720809608,575:    -68  75  76
1720809608,575:    -79  75  76
1720809608,575:    -70  75  76
1720809608,575:    -52  75  76
1720809608,575:    -44  75  76
1720809608,575:    -47  75  76
1720809608,575:    -46  75  76
1720809608,575:    -29  75  76
1720809608,605:    -10  75  76
1720809608,605:     -7  75  76
1720809608,605:    -21  75  76
1720809608,605:    -31  75  76
1720809608,605:    -23  75  76
1720809608,605:     -4  75  76
1720809608,605:      3  75  76
1720809608,605:     -9  75  76
1720809608,605:    -20  75  76
1720809608,605:    -10  75  76
1720809608,605:     11  75  76
1720809608,605:     17  75  76
1720809608,605:      1  75  76
1720809608,605:    -15  75  76
1720809608,605:     -8  75  76
1720809608,636:     15  75  76
1720809608,636:     26  75  76
1720809608,636:     15  75  76
1720809608,636:      1  75  76
1720809608,636:     11  75  76
1720809608,636:     36  75  76
1720809608,636:     45  75  76
1720809608,636:     25  75  76
1720809608,636:      0  75  76
1720809608,636:      0  75  76
1720809608,636:     21  75  76
1720809608,636:     33  75  76
1720809608,636:     21  75  76
1720809608,636:      3  75  76
1720809608,636:      7  75  76
1720809608,666:     27  75  76
1720809608,666:     31  75  76
1720809608,666:      3  75  76
1720809608,666:    -30  75  76
1720809608,666:    -34  75  76
1720809608,666:     -6  75  76
1720809608,666:     19  75  76
1720809608,666:     17  75  76
1720809608,666:      0  75  76
1720809608,666:      3  75  76
1720809608,666:     35  75  76
1720809608,666:     68  75  76
1720809608,666:     68  75  76
1720809608,666:     41  75  76
1720809608,666:     17  75  76
1720809608,696:     20  75  76
1720809608,696:     33  75  76
1720809608,696:     30  75  76
1720809608,696:      7  75  76
1720809608,696:    -10  75  76
1720809608,696:      0  75  76
1720809608,696:     33  75  76
1720809608,696:     61  75  76
1720809608,696:     75  75  76
1720809608,696:     91  75  76
1720809608,696:    129  75  76
1720809608,696:    182  75  76
1720809608,696:    223  75  76
1720809608,696:    239  75  76
1720809608,696:    241  75  76
1720809608,728:    248  75  76
1720809608,728:    259  75  76
1720809608,728:    250  75  76
1720809608,728:    212  75  76
1720809608,728:    166  75  76
1720809608,728:    140  75  76
1720809608,728:    137  75  76
1720809608,728:    131  75  76
1720809608,728:    104  75  76
1720809608,728:     70  75  76
1720809608,728:     51  75  76
1720809608,728:     48  75  76
1720809608,728:     38  75  76
1720809608,728:      6  75  76
1720809608,728:    -34  75  76
1720809608,760:    -58  75  76
1720809608,760:    -62  75  76
1720809608,760:    -67  75  76
1720809608,760:    -85  75  76
1720809608,760:   -102  75  76
1720809608,760:    -97  75  76
1720809608,760:    -76  75  76
1720809608,760:    -63  75  76
1720809608,760:    -74  75  76
1720809608,760:    -93  75  76
1720809608,760:    -94  75  76
1720809608,760:    -75  75  76
1720809608,760:    -60  75  76
1720809608,760:    -65  75  76
1720809608,760:    -81  75  76
1720809608,790:    -85  75  76
1720809608,790:    -74  75  76
1720809608,790:    -67  75  76
1720809608,790:    -80  75  76
1720809608,790:    -98  75  76
1720809608,790:    -99  75  76
1720809608,790:    -77  75  76
1720809608,790:    -54  75  76
1720809608,790:    -50  75  76
1720809608,790:    -54  75  76
1720809608,790:    -44  75  76
1720809608,790:    -19  75  76
1720809608,790:     -3  75  76
1720809608,790:    -20  75  76
1720809608,790:    -54  75  76
1720809608,820:    -70  75  76
1720809608,820:    -56  75  76
1720809608,820:    -36  75  76
1720809608,820:    -40  75  76
1720809608,820:    -61  75  76
1720809608,820:    -68  75  76
1720809608,820:    -43  75  76
1720809608,820:    -14  75  76
1720809608,820:    -14  75  76
1720809608,820:    -35  75  76
1720809608,820:    -39  75  76
1720809608,820:     -5  75  76
1720809608,820:     39  75  76
1720809608,820:     45  75  76
1720809608,820:     -2  75  76
1720809608,853:    -62  75  76
1720809608,853:    -97  75  76
1720809608,853:   -107  75  76
1720809608,853:   -137  75  76
1720809608,853:   -217  75  76
1720809608,853:   -322  75  76
1720809608,853:   -394  75  76
1720809608,853:   -384  75  76
1720809608,853:   -270  75  76
1720809608,853:    -33  75  76
1720809608,853:    366  75  76
1720809608,853:    998  75  76
1720809608,853:   1931  75  76
1720809608,853:   3142  75  76
1720809608,853:   4457  75  76
1720809608,853:   5615  75  76
1720809608,853:   6439  75  76
1720809608,853:   6975  75  76
1720809608,853:   7394  75  76
1720809608,853:   7726  75  76
1720809608,853:   7708  75  76
1720809608,853:   6990  75  76
1720809608,853:   5522  75  76
1720809608,884:   3709  77  76
1720809608,884:   2107  77  76
1720809608,884:    976  77  76
1720809608,884:    148  77  76
1720809608,884:   -673  77  76
1720809608,884:  -1538  77  76
1720809608,884:  -2212  77  76
1720809608,914:  -2447  77  76
1720809608,914:  -2246  77  76
1720809608,914:  -1836  77  76
1720809608,914:  -1465  77  76
1720809608,914:  -1248  77  76
1720809608,914:  -1167  77  76
1720809608,914:  -1156  77  76
1720809608,914:  -1164  77  76
1720809608,914:  -1156  77  76
1720809608,914:  -1116  77  76
1720809608,914:  -1053  77  76
1720809608,914:   -995  77  76
1720809608,914:   -977  77  76
1720809608,914:  -1008  77  76
1720809608,914:  -1066  77  76
1720809608,914:  -1117  77  76
1720809608,914:  -1128  77  76
1720809608,914:  -1098  77  76
1720809608,914:  -1062  77  76
1720809608,914:  -1057  77  76
1720809608,914:  -1083  77  76
1720809608,914:  -1101  77  76
1720809608,914:  -1085  77  76
1720809608,944:  -1043  77  76
1720809608,944:   -998  77  76
1720809608,944:   -957  77  76
1720809608,944:   -906  77  76
1720809608,944:   -843  77  76
1720809608,944:   -789  77  76
1720809608,944:   -768  77  76
1720809608,944:   -778  77  76
1720809608,944:   -788  77  76
1720809608,944:   -774  77  76
1720809608,944:   -742  77  76
1720809608,944:   -714  77  76
1720809608,944:   -695  77  76
1720809608,944:   -668  77  76
1720809608,944:   -626  77  76
1720809608,975:   -584  77  76
1720809608,975:   -567  77  76
1720809608,975:   -576  77  76
1720809608,975:   -580  77  76
1720809608,975:   -555  77  76
1720809608,975:   -513  77  76
1720809608,975:   -487  77  76
1720809608,975:   -488  77  76
1720809608,975:   -493  77  76
1720809608,975:   -473  77  76
1720809608,975:   -435  77  76
1720809608,975:   -409  77  76
1720809608,975:   -410  77  76
1720809608,975:   -417  77  76
1720809608,975:   -401  77  76
1720809609,005:   -363  77  76
1720809609,005:   -334  77  76
1720809609,005:   -334  77  76
1720809609,005:   -346  77  76
1720809609,005:   -339  77  76
1720809609,005:   -305  77  76
1720809609,005:   -272  77  76
1720809609,005:   -263  77  76
1720809609,005:   -268  77  76
1720809609,005:   -260  77  76
1720809609,005:   -230  77  76
1720809609,005:   -202  77  76
1720809609,005:   -199  77  76
1720809609,005:   -212  77  76
1720809609,005:   -214  77  76
1720809609,005:   -195  77  76
1720809609,005:   -174  77  76
1720809609,005:   -170  77  76
1720809609,005:   -177  77  76
1720809609,005:   -171  77  76
1720809609,005:   -145  77  76
1720809609,005:   -122  77  76
1720809609,036:   -124  77  76
1720809609,036:   -141  77  76
1720809609,036:   -143  77  76
1720809609,036:   -121  77  76
1720809609,036:    -95  77  76
1720809609,036:    -91  77  76
1720809609,036:   -103  77  76
1720809609,036:   -104  77  76
1720809609,068:    -84  77  76
1720809609,068:    -63  77  76
1720809609,068:    -65  77  76
1720809609,068:    -85  77  76
1720809609,068:    -95  77  76
1720809609,068:    -82  77  76
1720809609,068:    -63  77  76
1720809609,068:    -62  77  76
1720809609,068:    -80  77  76
1720809609,068:    -90  77  76
1720809609,068:    -81  77  76
1720809609,068:    -68  77  76
1720809609,068:    -77  77  76
1720809609,068:   -106  77  76
1720809609,068:   -129  77  76
1720809609,100:   -126  77  76
1720809609,100:   -106  77  76
1720809609,100:    -95  77  76
1720809609,100:   -103  77  76
1720809609,100:   -113  77  76
1720809609,100:   -104  77  76
1720809609,100:    -80  77  76
1720809609,100:    -64  77  76
1720809609,100:    -67  77  76
1720809609,100:    -73  77  76
1720809609,100:    -62  77  76
1720809609,100:    -32  77  76
1720809609,100:     -5  77  76
1720809609,100:      6  77  76
1720809609,100:     13  77  76
1720809609,132:     34  77  76
1720809609,132:     65  77  76
1720809609,132:     83  77  76
1720809609,132:     75  77  76
1720809609,132:     56  77  76
1720809609,132:     57  77  76
1720809609,132:     80  77  76
1720809609,132:    102  77  76
1720809609,132:    100  77  76
1720809609,132:     86  77  76
1720809609,132:     86  77  76
1720809609,132:    106  77  76
1720809609,132:    120  77  76
1720809609,132:    104  77  76
1720809609,132:     72  77  76
1720809609,132:     56  77  76
1720809609,132:     69  77  76
1720809609,132:     83  77  76
1720809609,132:     71  77  76
1720809609,132:     40  77  76
1720809609,132:     26  77  76
1720809609,132:     42  77  76
1720809609,164:     63  77  76
1720809609,164:     58  77  76
1720809609,164:     29  77  76
1720809609,164:     10  77  76
1720809609,164:     19  77  76
1720809609,164:     37  77  76
1720809609,164:     34  77  76
1720809609,164:     12  77  76
1720809609,164:     -2  77  76
1720809609,164:      7  77  76
1720809609,164:     18  77  76
1720809609,164:      7  77  76
1720809609,164:    -20  77  76
1720809609,164:    -32  77  76
1720809609,164:    -16  77  76
1720809609,196:      8  77  76
1720809609,196:     10  77  76
1720809609,196:     -7  77  76
1720809609,196:    -11  77  76
1720809609,196:     11  77  76
1720809609,196:     38  77  76
1720809609,196:     38  77  76
1720809609,196:     12  77  76
1720809609,196:     -8  77  76
1720809609,196:      0  77  76
1720809609,196:     21  77  76
1720809609,196:     25  77  76
1720809609,196:      5  77  76
1720809609,196:    -10  77  76
1720809609,196:      0  77  76
1720809609,227:     23  77  76
1720809609,227:     32  77  76
1720809609,227:     17  77  76
1720809609,227:      3  77  76
1720809609,227:     13  77  76
1720809609,227:     40  77  76
1720809609,227:     60  77  76
1720809609,227:     61  77  76
1720809609,227:     56  77  76
1720809609,227:     65  77  76
1720809609,227:     82  77  76
1720809609,227:     89  77  76
1720809609,227:     75  77  76
1720809609,227:     57  77  76
1720809609,227:     53  77  76
1720809609,258:     62  77  76
1720809609,258:     67  77  76
1720809609,258:     60  77  76
1720809609,258:     51  77  76
1720809609,258:     57  77  76
1720809609,258:     72  77  76
1720809609,258:     77  77  76
1720809609,258:     61  77  76
1720809609,258:     36  77  76
1720809609,258:     28  77  76
1720809609,258:     39  77  76
1720809609,258:     50  77  76
1720809609,258:     42  77  76
1720809609,258:     23  77  76
1720809609,258:     16  77  76
1720809609,289:     31  77  76
1720809609,289:     47  77  76
1720809609,289:     41  77  76
1720809609,289:     15  77  76
1720809609,289:     -5  77  76
1720809609,289:     -2  77  76
1720809609,289:     14  77  76
1720809609,289:     17  77  76
1720809609,289:      2  77  76
1720809609,289:    -11  77  76
1720809609,289:     -5  77  76
1720809609,289:      6  77  76
1720809609,289:      0  77  76
1720809609,289:    -24  77  76
1720809609,289:    -43  77  76
1720809609,320:    -38  77  76
1720809609,320:    -23  77  76
1720809609,320:    -21  77  76
1720809609,320:    -37  77  76
1720809609,320:    -44  77  76
1720809609,320:    -25  77  76
1720809609,320:      3  77  76
1720809609,320:      6  77  76
1720809609,320:    -21  77  76
1720809609,320:    -47  77  76
1720809609,320:    -46  77  76
1720809609,320:    -26  77  76
1720809609,320:    -24  77  76
1720809609,320:    -50  77  76
1720809609,320:    -79  77  76
1720809609,351:    -81  77  76
1720809609,351:    -61  77  76
1720809609,351:    -53  77  76
1720809609,351:    -74  77  76
1720809609,351:   -100  77  76
1720809609,351:   -101  77  76
1720809609,351:    -76  77  76
1720809609,351:    -56  77  76
1720809609,351:    -64  77  76
1720809609,351:    -82  77  76
1720809609,351:    -83  77  76
1720809609,351:    -66  77  76
1720809609,351:    -56  77  76
1720809609,351:    -72  77  76
1720809609,351:    -96  77  76
1720809609,382:   -100  77  76
1720809609,382:    -81  77  76
1720809609,382:    -67  77  76
1720809609,382:    -74  77  76
1720809609,382:    -88  77  76
1720809609,382:    -79  77  76
1720809609,382:    -48  77  76
1720809609,382:    -27  77  76
1720809609,382:    -40  77  76
1720809609,382:    -71  77  76
1720809609,382:    -81  77  76
1720809609,382:    -58  77  76
1720809609,382:    -31  77  76
1720809609,382:    -28  77  76
1720809609,382:    -44  77  76
1720809609,382:    -48  77  76
1720809609,382:    -25  77  76
1720809609,382:      0  77  76
1720809609,382:      0  77  76
1720809609,382:    -23  77  76
1720809609,382:    -38  77  76
1720809609,382:    -27  77  76
1720809609,382:     -6  77  76
1720809609,414:      0  77  76
1720809609,414:    -11  77  76
1720809609,414:    -17  77  76
1720809609,414:     -5  77  76
1720809609,414:     11  77  76
1720809609,414:     10  77  76
1720809609,414:     -8  77  76
1720809609,414:    -24  77  76
1720809609,414:    -24  77  76
1720809609,414:    -17  77  76
1720809609,414:    -22  77  76
1720809609,414:    -34  77  76
1720809609,414:    -37  77  76
1720809609,414:    -23  77  76
1720809609,414:     -8  77  76
1720809609,446:    -11  77  76
1720809609,446:    -28  77  76
1720809609,446:    -37  77  76
1720809609,446:    -25  77  76
1720809609,446:     -5  77  76
1720809609,446:      0  77  76
1720809609,446:     -9  77  76
1720809609,446:    -12  77  76
1720809609,446:      4  77  76
1720809609,446:     23  77  76
1720809609,446:     23  77  76
1720809609,446:      0  77  76
1720809609,478:    -18  77  76
1720809609,478:    -15  77  76
1720809609,478:      4  77  76
1720809609,478:     15  77  76
1720809609,478:     12  77  76
1720809609,478:     13  77  76
1720809609,478:     34  77  76
1720809609,478:     65  77  76
1720809609,478:     83  77  76
1720809609,478:     80  77  76
1720809609,478:     71  77  76
1720809609,478:     74  77  76
1720809609,478:     87  77  76
1720809609,478:     91  77  76
1720809609,478:     77  77  76
1720809609,510:     61  77  76
1720809609,510:     59  77  76
1720809609,510:     66  77  76
1720809609,510:     66  77  76
1720809609,510:     55  77  76
1720809609,510:     49  77  76
1720809609,510:     70  77  76
1720809609,510:    111  77  76
1720809609,510:    150  77  76
1720809609,510:    174  77  76
1720809609,510:    192  77  76
1720809609,510:    222  77  76
1720809609,510:    258  77  76
1720809609,510:    279  77  76
1720809609,510:    270  77  76
1720809609,510:    246  77  76
1720809609,510:    227  77  76
1720809609,510:    220  77  76
1720809609,510:    208  77  76
1720809609,510:    178  77  76
1720809609,510:    143  77  76
1720809609,510:    128  77  76
1720809609,510:    139  77  76
1720809609,542:    152  77  76
1720809609,542:    137  77  76
1720809609,542:     93  77  76
1720809609,542:     53  77  76
1720809609,542:     41  77  76
1720809609,542:     49  77  76
1720809609,542:     46  77  76
1720809609,542:     17  77  76
1720809609,542:    -19  77  76
1720809609,542:    -36  77  76
1720809609,542:    -33  77  76
1720809609,542:    -34  77  76
1720809609,542:    -52  77  76
1720809609,542:    -70  77  76
1720809609,542:    -67  77  76
1720809609,572:    -48  77  76
1720809609,572:    -38  77  76
1720809609,572:    -51  77  76
1720809609,572:    -66  77  76
1720809609,572:    -59  77  76
1720809609,572:    -37  77  76
1720809609,572:    -30  77  76
1720809609,572:    -53  77  76
1720809609,572:    -80  77  76
1720809609,572:    -82  77  76
1720809609,572:    -59  77  76
1720809609,572:    -43  77  76
1720809609,572:    -52  77  76
1720809609,572:    -67  77  76
1720809609,572:    -57  77  76
1720809609,602:    -25  77  76
1720809609,602:     -5  77  76
1720809609,602:    -18  77  76
1720809609,602:    -47  77  76
1720809609,602:    -56  77  76
1720809609,602:    -39  77  76
1720809609,602:    -21  77  76
1720809609,602:    -25  77  76
1720809609,602:    -42  77  76
1720809609,602:    -48  77  76
1720809609,602:    -37  77  76
1720809609,602:    -26  77  76
1720809609,602:    -30  77  76
1720809609,602:    -42  77  76
1720809609,602:    -38  77  76
1720809609,632:    -12  77  76
1720809609,632:     17  77  76
1720809609,632:     35  77  76
1720809609,632:     43  77  76
1720809609,632:     46  77  76
1720809609,632:     33  77  76
1720809609,632:     -8  77  76
1720809609,632:    -68  77  76
1720809609,632:   -125  77  76
1720809609,632:   -179  77  76
1720809609,632:   -258  77  76
1720809609,632:   -373  77  76
1720809609,632:   -481  77  76
1720809609,632:   -494  77  76
1720809609,632:   -342  77  76
1720809609,664:    -12  77  76
1720809609,664:    496  77  76
1720809609,664:   1236  77  76
1720809609,664:   2287  77  76
1720809609,664:   3620  77  76
1720809609,664:   5022  77  76
1720809609,664:   6205  77  76
1720809609,664:   7032  77  76
1720809609,664:   7600  77  76
1720809609,664:   8065  77  76
1720809609,664:   8357  77  76
1720809609,664:   8149  77  76
1720809609,664:   7162  77  76
1720809609,664:   5510  77  76
1720809609,664:   3690  77  76
1720809609,696:   2197  75  76
1720809609,696:   1144  75  76
1720809609,696:    292  75  76
1720809609,696:   -599  75  76
1720809609,696:  -1473  75  76
1720809609,696:  -2062  75  76
1720809609,696:  -2183  75  76
1720809609,696:  -1925  75  76
1720809609,696:  -1542  75  76
1720809609,696:  -1246  75  76
1720809609,696:  -1102  75  76
1720809609,696:  -1075  75  76
1720809609,696:  -1109  75  76
1720809609,696:  -1157  75  76
1720809609,696:  -1174  75  76
1720809609,728:  -1139  75  76
1720809609,728:  -1086  75  76
1720809609,728:  -1078  75  76
1720809609,728:  -1145  75  76
1720809609,728:  -1246  75  76
1720809609,728:  -1317  75  76
1720809609,728:  -1332  75  76
1720809609,728:  -1314  75  76
1720809609,728:  -1296  75  76
1720809609,728:  -1290  75  76
1720809609,728:  -1285  75  76
1720809609,728:  -1273  75  76
1720809609,728:  -1261  75  76
1720809609,728:  -1254  75  76
1720809609,728:  -1237  75  76
1720809609,728:  -1183  75  76
1720809609,728:  -1096  75  76
1720809609,728:  -1009  75  76
1720809609,728:   -957  75  76
1720809609,728:   -942  75  76
1720809609,728:   -937  75  76
1720809609,728:   -921  75  76
1720809609,760:   -896  75  76
1720809609,760:   -878  75  76
1720809609,760:   -865  75  76
1720809609,760:   -838  75  76
1720809609,760:   -791  75  76
1720809609,760:   -740  75  76
1720809609,760:   -705  75  76
1720809609,760:   -689  75  76
1720809609,760:   -676  75  76
1720809609,760:   -657  75  76
1720809609,760:   -637  75  76
1720809609,760:   -628  75  76
1720809609,760:   -625  75  76
1720809609,760:   -608  75  76
1720809609,760:   -569  75  76
1720809609,790:   -526  75  76
1720809609,790:   -501  75  76
1720809609,790:   -498  75  76
1720809609,790:   -494  75  76
1720809609,790:   -472  75  76
1720809609,790:   -439  75  76
1720809609,790:   -418  75  76
1720809609,790:   -415  75  76
1720809609,790:   -413  75  76
1720809609,790:   -395  75  76
1720809609,790:   -363  75  76
1720809609,790:   -337  75  76
1720809609,790:   -327  75  76
1720809609,790:   -320  75  76
1720809609,790:   -296  75  76
1720809609,820:   -261  75  76
1720809609,820:   -237  75  76
1720809609,820:   -237  75  76
1720809609,820:   -245  75  76
1720809609,820:   -237  75  76
1720809609,820:   -209  75  76
1720809609,820:   -183  75  76
1720809609,820:   -179  75  76
1720809609,852:   -185  75  76
1720809609,852:   -178  75  76
1720809609,852:   -153  75  76
1720809609,852:   -133  75  76
1720809609,852:   -137  75  76
1720809609,852:   -154  75  76
1720809609,852:   -156  75  76
1720809609,852:   -136  75  76
1720809609,852:   -115  75  76
1720809609,852:   -115  75  76
1720809609,852:   -128  75  76
1720809609,852:   -126  75  76
1720809609,852:   -100  75  76
1720809609,852:    -71  75  76
1720809609,852:    -68  75  76
1720809609,852:    -86  75  76
1720809609,852:    -94  75  76
1720809609,852:    -79  75  76
1720809609,852:    -58  75  76
1720809609,852:    -55  75  76
1720809609,852:    -69  75  76
1720809609,852:    -77  75  76
1720809609,884:    -66  75  76
1720809609,884:    -54  75  76
1720809609,884:    -65  75  76
1720809609,884:    -96  75  76
1720809609,884:   -116  75  76
1720809609,884:   -111  75  76
1720809609,884:    -94  75  76
1720809609,884:    -95  75  76
1720809609,884:   -116  75  76
1720809609,884:   -136  75  76
1720809609,884:   -131  75  76
1720809609,884:   -111  75  76
1720809609,884:   -103  75  76
1720809609,884:   -117  75  76
1720809609,884:   -136  75  76
1720809609,916:   -133  75  76
1720809609,916:   -107  75  76
1720809609,916:    -78  75  76
1720809609,916:    -64  75  76
1720809609,916:    -56  75  76
1720809609,916:    -38  75  76
1720809609,916:    -10  75  76
1720809609,916:      9  75  76
1720809609,916:      4  75  76
1720809609,916:    -11  75  76
1720809609,916:    -14  75  76
1720809609,916:      2  75  76
1720809609,916:     19  75  76
1720809609,916:     20  75  76
1720809609,916:     14  75  76
1720809609,946:     18  75  76
1720809609,946:     36  75  76
1720809609,946:     48  75  76
1720809609,946:     38  75  76
1720809609,946:     19  75  76
1720809609,946:     15  75  76
1720809609,946:     28  75  76
1720809609,946:     37  75  76
1720809609,946:     24  75  76
1720809609,946:      0  75  76
1720809609,946:     -4  75  76
1720809609,946:     18  75  76
1720809609,946:     37  75  76
1720809609,946:     25  75  76
1720809609,946:     -9  75  76
1720809609,946:    -28  75  76
1720809609,946:    -18  75  76
1720809609,946:      0  75  76
1720809609,946:     -4  75  76
1720809609,946:    -23  75  76
1720809609,946:    -30  75  76
1720809609,946:    -13  75  76
1720809609,946:      5  75  76
1720809609,978:     -5  75  76
1720809609,978:    -34  75  76
1720809609,978:    -45  75  76
1720809609,978:    -23  75  76
1720809609,978:      9  75  76
1720809609,978:     15  75  76
1720809609,978:     -5  75  76
1720809609,978:    -19  75  76
1720809609,978:     -5  75  76
1720809609,978:     19  75  76
1720809609,978:     22  75  76
1720809609,978:     -1  75  76
1720809609,978:    -21  75  76
1720809609,978:    -14  75  76
1720809609,978:      8  75  76
1720809610,010:     19  75  76
1720809610,010:     11  75  76
1720809610,010:      7  75  76
1720809610,010:     26  75  76
1720809610,010:     55  75  76
1720809610,010:     64  75  76
1720809610,010:     46  75  76
1720809610,010:     24  75  76
1720809610,010:     24  75  76
1720809610,010:     43  75  76
1720809610,010:     52  75  76
1720809610,010:     41  75  76
1720809610,010:     27  75  76
1720809610,010:     28  75  76
1720809610,010:     38  75  76
1720809610,042:     33  75  76
1720809610,042:      9  75  76
1720809610,042:    -10  75  76
1720809610,042:     -3  75  76
1720809610,042:     19  75  76
1720809610,042:     27  75  76
1720809610,042:     11  75  76
1720809610,042:     -7  75  76
1720809610,042:      1  75  76
1720809610,042:     30  75  76
1720809610,042:     48  75  76
1720809610,042:     35  75  76
1720809610,042:      9  75  76
1720809610,042:      0  75  76
1720809610,042:     14  75  76
1720809610,074:     30  75  76
1720809610,074:     28  75  76
1720809610,074:     16  75  76
1720809610,074:     16  75  76
1720809610,074:     29  75  76
1720809610,074:     35  75  76
1720809610,074:     20  75  76
1720809610,074:     -4  75  76
1720809610,074:    -12  75  76
1720809610,074:      1  75  76
1720809610,074:     16  75  76
1720809610,074:     13  75  76
1720809610,074:      0  75  76
1720809610,074:     -1  75  76
1720809610,074:     17  75  76
1720809610,106:     34  75  76
1720809610,106:     26  75  76
1720809610,106:      2  75  76
1720809610,106:    -12  75  76
1720809610,106:     -4  75  76
1720809610,106:     11  75  76
1720809610,106:      7  75  76
1720809610,106:    -13  75  76
1720809610,106:    -22  75  76
1720809610,106:     -8  75  76
1720809610,106:     10  75  76
1720809610,106:      3  75  76
1720809610,106:    -25  75  76
1720809610,106:    -44  75  76
1720809610,106:    -34  75  76
1720809610,138:    -10  75  76
1720809610,138:     -7  75  76
1720809610,138:    -26  75  76
1720809610,138:    -39  75  76
1720809610,138:    -25  75  76
1720809610,138:      1  75  76
1720809610,138:      3  75  76
1720809610,138:    -25  75  76
1720809610,138:    -52  75  76
1720809610,138:    -48  75  76
1720809610,138:    -26  75  76
1720809610,138:    -17  75  76
1720809610,138:    -32  75  76
1720809610,138:    -47  75  76
1720809610,138:    -37  75  76
1720809610,170:     -9  75  76
1720809610,170:      4  75  76
1720809610,170:     -9  75  76
1720809610,170:    -28  75  76
1720809610,170:    -28  75  76
1720809610,170:    -10  75  76
1720809610,170:      2  75  76
1720809610,170:     -2  75  76
1720809610,170:     -6  75  76
1720809610,170:      4  75  76
1720809610,170:     22  75  76
1720809610,170:     24  75  76
1720809610,170:      7  75  76
1720809610,170:     -9  75  76
1720809610,170:     -3  75  76
1720809610,170:     16  75  76
1720809610,170:     24  75  76
1720809610,170:     10  75  76
1720809610,170:     -6  75  76
1720809610,170:      0  75  76
1720809610,170:     25  75  76
1720809610,170:     39  75  76
1720809610,201:     25  75  76
1720809610,201:     -4  75  76
1720809610,201:    -19  75  76
1720809610,201:    -11  75  76
1720809610,201:      1  75  76
1720809610,201:     -5  75  76
1720809610,201:    -21  75  76
1720809610,201:    -25  75  76
1720809610,201:     -8  75  76
1720809610,201:     10  75  76
1720809610,201:      8  75  76
1720809610,201:    -12  75  76
1720809610,201:    -25  75  76
1720809610,201:    -16  75  76
1720809610,201:      3  75  76
1720809610,233:      8  75  76
1720809610,233:     -3  75  76
1720809610,233:    -11  75  76
1720809610,233:     -3  75  76
1720809610,233:     13  75  76
1720809610,233:     16  75  76
1720809610,233:      1  75  76
1720809610,233:    -10  75  76
1720809610,233:     -3  75  76
1720809610,233:     16  75  76
1720809610,233:     23  75  76
1720809610,233:     13  75  76
1720809610,233:      5  75  76
1720809610,233:     15  75  76
1720809610,233:     34  75  76
1720809610,265:     38  75  76
1720809610,265:     23  75  76
1720809610,265:      9  75  76
1720809610,265:     16  75  76
1720809610,265:     37  75  76
1720809610,265:     44  75  76
1720809610,265:     30  75  76
1720809610,265:     16  75  76
1720809610,265:     24  75  76
1720809610,265:     43  75  76
1720809610,265:     45  75  76
1720809610,265:     18  75  76
1720809610,265:     -6  75  76
1720809610,265:      3  75  76
1720809610,265:     40  75  76
1720809610,297:     69  75  76
1720809610,297:     65  75  76
1720809610,297:     49  75  76
1720809610,297:     56  75  76
1720809610,297:     90  75  76
1720809610,297:    118  75  76
1720809610,297:    109  75  76
1720809610,297:     74  75  76
1720809610,297:     50  75  76
1720809610,297:     54  75  76
1720809610,297:     65  75  76
1720809610,297:     55  75  76
1720809610,297:     28  75  76
1720809610,297:     16  75  76
1720809610,297:     37  75  76
1720809610,329:     71  75  76
1720809610,329:     90  75  76
1720809610,329:     92  75  76
1720809610,329:    105  75  76
1720809610,329:    146  75  76
1720809610,329:    195  75  76
1720809610,329:    220  75  76
1720809610,329:    218  75  76
1720809610,329:    217  75  76
1720809610,329:    234  75  76
1720809610,329:    254  75  76
1720809610,329:    245  75  76
1720809610,329:    203  75  76
1720809610,329:    161  75  76
1720809610,329:    148  75  76
1720809610,329:    155  75  76
1720809610,329:    150  75  76
1720809610,329:    118  75  76
1720809610,329:     82  75  76
1720809610,329:     66  75  76
1720809610,329:     69  75  76
1720809610,329:     62  75  76
1720809610,329:     33  75  76
1720809610,361:     -2  75  76
1720809610,361:    -18  75  76
1720809610,361:    -17  75  76
1720809610,361:    -20  75  76
1720809610,361:    -37  75  76
1720809610,361:    -49  75  76
1720809610,361:    -38  75  76
1720809610,361:    -13  75  76
1720809610,361:     -4  75  76
1720809610,361:    -25  75  76
1720809610,361:    -51  75  76
1720809610,361:    -53  75  76
1720809610,361:    -33  75  76
1720809610,361:    -20  75  76
1720809610,361:    -28  75  76
1720809610,393:    -40  75  76
1720809610,393:    -32  75  76
1720809610,393:     -9  75  76
1720809610,393:      1  75  76
1720809610,393:    -16  75  76
1720809610,393:    -39  75  76
1720809610,393:    -39  75  76
1720809610,393:    -19  75  76
1720809610,393:     -7  75  76
1720809610,393:    -17  75  76
1720809610,393:    -33  75  76
1720809610,393:    -28  75  76
1720809610,393:     -5  75  76
1720809610,393:      5  75  76
1720809610,393:    -13  75  76
1720809610,425:    -39  75  76
1720809610,425:    -43  75  76
1720809610,425:    -21  75  76
1720809610,425:     -3  75  76
1720809610,425:    -11  75  76
1720809610,425:    -31  75  76
1720809610,425:    -29  75  76
1720809610,425:      1  75  76
1720809610,425:     29  75  76
1720809610,425:     28  75  76
1720809610,425:      6  75  76
1720809610,425:      0  75  76
1720809610,425:     28  75  76
1720809610,425:     65  75  76
1720809610,425:     62  75  76
1720809610,457:      6  75  76
1720809610,457:    -66  75  76
1720809610,457:   -107  75  76
1720809610,457:   -120  75  76
1720809610,457:   -166  75  76
1720809610,457:   -286  75  76
1720809610,457:   -442  75  76
1720809610,457:   -543  75  76
1720809610,457:   -504  75  76
1720809610,457:   -302  75  76
1720809610,457:     54  75  76
1720809610,457:    603  75  76
1720809610,457:   1433  75  76
1720809610,457:   2587  75  76
1720809610,457:   3955  75  76
1720809610,457:   5294  75  76
1720809610,457:   6382  75  76
1720809610,457:   7172  75  76
1720809610,457:   7768  75  76
1720809610,489:   8233  74  75
1720809610,489:   8421  74  75
1720809610,489:   8045  74  75
1720809610,489:   6955  74  75
1720809610,489:   5342  74  75
1720809610,489:   3653  74  75
1720809610,489:   2265  74  75
1720809610,489:   1238  74  75
1720809610,489:    374  74  75
1720809610,489:   -497  74  75
1720809610,489:  -1318  74  75
1720809610,489:  -1861  74  75
1720809610,489:  -1973  74  75
1720809610,489:  -1726  74  75
1720809610,489:  -1360  74  75
1720809610,521:  -1102  74  75
1720809610,521:  -1031  74  75
1720809610,521:  -1082  74  75
1720809610,521:  -1147  74  75
1720809610,521:  -1166  74  75
1720809610,521:  -1142  74  75
1720809610,521:  -1112  74  75
1720809610,521:  -1108  74  75
1720809610,521:  -1137  74  75
1720809610,521:  -1195  74  75
1720809610,521:  -1269  74  75
1720809610,521:  -1342  74  75
1720809610,521:  -1395  74  75
1720809610,521:  -1407  74  75
1720809610,521:  -1382  74  75
1720809610,553:  -1354  74  75
1720809610,553:  -1350  74  75
1720809610,553:  -1366  74  75
1720809610,553:  -1368  74  75
1720809610,553:  -1335  74  75
1720809610,553:  -1279  74  75
1720809610,553:  -1225  74  75
1720809610,553:  -1179  74  75
1720809610,553:  -1130  74  75
1720809610,553:  -1073  74  75
1720809610,553:  -1027  74  75
1720809610,553:  -1015  74  75
1720809610,553:  -1027  74  75
1720809610,553:  -1028  74  75
1720809610,553:   -989  74  75
1720809610,585:   -925  74  75
1720809610,585:   -873  74  75
1720809610,585:   -848  74  75
1720809610,585:   -830  74  75
1720809610,585:   -799  74  75
1720809610,585:   -759  74  75
1720809610,585:   -737  74  75
1720809610,585:   -736  74  75
1720809610,585:   -734  74  75
1720809610,585:   -708  74  75
1720809610,585:   -663  74  75
1720809610,585:   -630  74  75
1720809610,585:   -621  74  75
1720809610,585:   -615  74  75
1720809610,585:   -591  74  75
1720809610,617:   -552  74  75
1720809610,617:   -525  74  75
1720809610,617:   -520  74  75
1720809610,617:   -517  74  75
1720809610,617:   -491  74  75
1720809610,617:   -449  74  75
1720809610,617:   -422  74  75
1720809610,617:   -426  74  75
1720809610,617:   -439  74  75
1720809610,617:   -429  74  75
1720809610,617:   -393  74  75
1720809610,617:   -358  74  75
1720809610,617:   -347  74  75
1720809610,617:   -348  74  75
1720809610,617:   -331  74  75
1720809610,649:   -293  74  75
1720809610,649:   -259  74  75
1720809610,649:   -255  74  75
1720809610,649:   -269  74  75
1720809610,649:   -270  74  75
1720809610,649:   -247  74  75
1720809610,649:   -219  74  75
1720809610,649:   -211  74  75
1720809610,649:   -216  74  75
1720809610,649:   -208  74  75
1720809610,649:   -178  74  75
1720809610,649:   -148  74  75
1720809610,649:   -144  74  75
1720809610,649:   -157  74  75
1720809610,649:   -156  74  75
1720809610,649:   -130  74  75
1720809610,649:   -101  74  75
1720809610,649:    -98  74  75
1720809610,649:   -113  74  75
1720809610,649:   -114  74  75
1720809610,649:    -85  74  75
1720809610,649:    -54  74  75
1720809610,649:    -55  74  75
1720809610,681:    -86  74  75
1720809610,681:   -110  74  75
1720809610,681:   -100  74  75
1720809610,681:    -73  74  75
1720809610,681:    -64  74  75
1720809610,681:    -85  74  75
1720809610,681:   -108  74  75
1720809610,681:   -104  74  75
1720809610,681:    -83  74  75
1720809610,681:    -79  74  75
1720809610,681:   -103  74  75
1720809610,681:   -132  74  75
1720809610,681:   -138  74  75
1720809610,681:   -125  74  75
1720809610,681:   -118  74  75
1720809610,713:   -130  74  75
1720809610,713:   -141  74  75
1720809610,713:   -128  74  75
1720809610,713:    -96  74  75
1720809610,713:    -76  74  75
1720809610,713:    -84  74  75
1720809610,713:    -95  74  75
1720809610,745:    -78  74  75
1720809610,745:    -34  74  75
1720809610,745:      6  74  75
1720809610,745:     17  74  75
1720809610,745:     12  74  75
1720809610,745:     21  74  75
1720809610,745:     50  74  75
1720809610,745:     73  74  75
1720809610,745:     68  74  75
1720809610,745:     48  74  75
1720809610,745:     38  74  75
1720809610,745:     49  74  75
1720809610,745:     62  74  75
1720809610,745:     57  74  75
1720809610,745:     43  74  75
1720809610,745:     42  74  75
1720809610,745:     58  74  75
1720809610,745:     70  74  75
1720809610,745:     58  74  75
1720809610,745:     33  74  75
1720809610,745:     19  74  75
1720809610,745:     29  74  75
1720809610,745:     43  74  75
1720809610,777:     39  74  75
1720809610,777:     20  74  75
1720809610,777:      8  74  75
1720809610,777:     16  74  75
1720809610,777:     29  74  75
1720809610,777:     24  74  75
1720809610,777:      0  74  75
1720809610,777:    -18  74  75
1720809610,777:    -11  74  75
1720809610,777:      9  74  75
1720809610,777:     18  74  75
1720809610,777:     11  74  75
1720809610,777:      8  74  75
1720809610,777:     23  74  75
1720809610,777:     44  74  75
1720809610,809:     45  74  75
1720809610,809:     24  74  75
1720809610,809:      4  74  75
1720809610,809:      6  74  75
1720809610,809:     21  74  75
1720809610,809:     25  74  75
1720809610,809:     11  74  75
1720809610,809:     -1  74  75
1720809610,809:      5  74  75
1720809610,809:     21  74  75
1720809610,809:     24  74  75
1720809610,809:      7  74  75
1720809610,809:     -7  74  75
1720809610,809:      2  74  75
1720809610,809:     24  74  75
1720809610,841:     36  74  75
1720809610,841:     28  74  75
1720809610,841:     18  74  75
1720809610,841:     27  74  75
1720809610,841:     47  74  75
1720809610,841:     54  74  75
1720809610,841:     37  74  75
1720809610,841:     15  74  75
1720809610,841:      9  74  75
1720809610,841:     18  74  75
1720809610,841:     24  74  75
1720809610,841:     18  74  75
1720809610,841:     15  74  75
1720809610,841:     26  74  75
1720809610,841:     45  74  75
1720809610,841:     52  74  75
1720809610,841:     39  74  75
1720809610,841:     25  74  75
1720809610,841:     27  74  75
1720809610,841:     42  74  75
1720809610,841:     51  74  75
1720809610,841:     42  74  75
1720809610,873:     27  74  75
1720809610,873:     26  74  75
1720809610,873:     41  74  75
1720809610,873:     54  74  75
1720809610,873:     52  74  75
1720809610,873:     41  74  75
1720809610,873:     39  74  75
1720809610,873:     52  74  75
1720809610,905:     68  74  75
1720809610,905:     73  74  75
1720809610,905:     66  74  75
1720809610,905:     63  74  75
1720809610,905:     72  74  75
1720809610,905:     79  74  75
1720809610,905:     70  74  75
1720809610,905:     47  74  75
1720809610,905:     28  74  75
1720809610,905:     28  74  75
1720809610,905:     39  74  75
1720809610,905:     38  74  75
1720809610,905:     21  74  75
1720809610,905:      4  74  75
1720809610,905:      2  74  75
1720809610,905:     10  74  75
1720809610,905:      8  74  75
1720809610,905:    -12  74  75
1720809610,905:    -32  74  75
1720809610,905:    -37  74  75
1720809610,905:    -31  74  75
1720809610,905:    -30  74  75
1720809610,937:    -42  74  75
1720809610,937:    -53  74  75
1720809610,937:    -49  74  75
1720809610,937:    -38  74  75
1720809610,937:    -40  74  75
1720809610,937:    -59  74  75
1720809610,937:    -76  74  75
1720809610,937:    -71  74  75
1720809610,937:    -51  74  75
1720809610,937:    -39  74  75
1720809610,937:    -44  74  75
1720809610,937:    -49  74  75
1720809610,937:    -39  74  75
1720809610,937:    -21  74  75
1720809610,937:    -19  74  75
1720809610,969:    -36  74  75
1720809610,969:    -53  74  75
1720809610,969:    -49  74  75
1720809610,969:    -31  74  75
1720809610,969:    -25  74  75
1720809610,969:    -38  74  75
1720809610,969:    -52  74  75
1720809610,969:    -45  74  75
1720809610,969:    -25  74  75
1720809610,969:    -18  74  75
1720809610,969:    -39  74  75
1720809610,969:    -68  74  75
1720809610,969:    -76  74  75
1720809610,969:    -58  74  75
1720809610,969:    -38  74  75
1720809611,001:    -39  74  75
1720809611,001:    -54  74  75
1720809611,001:    -59  74  75
1720809611,001:    -44  74  75
1720809611,001:    -26  74  75
1720809611,001:    -25  74  75
1720809611,001:    -42  74  75
1720809611,001:    -55  74  75
1720809611,001:    -51  74  75
1720809611,001:    -36  74  75
1720809611,001:    -29  74  75
1720809611,001:    -35  74  75
1720809611,001:    -39  74  75
1720809611,001:    -29  74  75
1720809611,001:    -15  74  75
1720809611,033:    -12  74  75
1720809611,033:    -22  74  75
1720809611,033:    -29  74  75
1720809611,033:    -21  74  75
1720809611,033:     -4  74  75
1720809611,033:      2  74  75
1720809611,033:     -8  74  75
1720809611,033:    -19  74  75
1720809611,033:    -14  74  75
1720809611,033:     -2  74  75
1720809611,033:     -3  74  75
1720809611,033:    -21  74  75
1720809611,033:    -38  74  75
1720809611,033:    -37  74  75
1720809611,033:    -22  74  75
1720809611,033:    -16  74  75
1720809611,033:    -28  74  75
1720809611,033:    -36  74  75
1720809611,033:    -24  74  75
1720809611,033:     -1  74  75
1720809611,033:      6  74  75
1720809611,033:    -14  74  75
1720809611,033:    -39  74  75
1720809611,065:    -42  74  75
1720809611,065:    -27  74  75
1720809611,065:    -19  74  75
1720809611,065:    -32  74  75
1720809611,065:    -49  74  75
1720809611,065:    -49  74  75
1720809611,065:    -32  74  75
1720809611,065:    -22  74  75
1720809611,065:    -35  74  75
1720809611,065:    -52  74  75
1720809611,065:    -50  74  75
1720809611,065:    -28  74  75
1720809611,065:    -11  74  75
1720809611,065:    -15  74  75
1720809611,065:    -27  74  75
1720809611,097:    -21  74  75
1720809611,097:      6  74  75
1720809611,097:     30  74  75
1720809611,097:     28  74  75
1720809611,097:      9  74  75
1720809611,097:      4  74  75
1720809611,097:     25  74  75
1720809611,097:     53  74  75
1720809611,097:     60  74  75
1720809611,097:     43  74  75
1720809611,097:     26  74  75
1720809611,097:     29  74  75
1720809611,097:     41  74  75
1720809611,097:     37  74  75
1720809611,097:      9  74  75
1720809611,129:    -18  74  75
1720809611,129:    -16  74  75
1720809611,129:     15  74  75
1720809611,129:     50  74  75
1720809611,129:     74  74  75
1720809611,129:     94  74  75
1720809611,129:    130  74  75
1720809611,129:    174  74  75
1720809611,129:    206  74  75
1720809611,129:    212  74  75
1720809611,129:    209  74  75
1720809611,129:    219  74  75
1720809611,129:    238  74  75
1720809611,129:    240  74  75
1720809611,129:    212  74  75
1720809611,161:    174  74  75
1720809611,161:    158  74  75
1720809611,161:    164  74  75
1720809611,161:    165  74  75
1720809611,161:    137  74  75
1720809611,161:     94  74  75
1720809611,161:     64  74  75
1720809611,161:     56  74  75
1720809611,161:     51  74  75
1720809611,161:     32  74  75
1720809611,161:      2  74  75
1720809611,161:    -20  74  75
1720809611,161:    -32  74  75
1720809611,161:    -49  74  75
1720809611,161:    -76  74  75
1720809611,193:    -99  74  75
1720809611,193:   -100  74  75
1720809611,193:    -83  74  75
1720809611,193:    -71  74  75
1720809611,193:    -74  74  75
1720809611,193:    -81  74  75
1720809611,193:    -74  74  75
1720809611,193:    -56  74  75
1720809611,193:    -47  74  75
1720809611,193:    -60  74  75
1720809611,193:    -82  74  75
1720809611,193:    -90  74  75
1720809611,193:    -83  74  75
1720809611,193:    -74  74  75
1720809611,193:    -76  74  75
1720809611,193:    -80  74  75
1720809611,193:    -70  74  75
1720809611,193:    -48  74  75
1720809611,193:    -31  74  75
1720809611,193:    -33  74  75
1720809611,193:    -44  74  75
1720809611,193:    -43  74  75
1720809611,225:    -29  74  75
1720809611,225:    -17  74  75
1720809611,225:    -23  74  75
1720809611,225:    -39  74  75
1720809611,225:    -43  74  75
1720809611,225:    -29  74  75
1720809611,225:    -16  74  75
1720809611,225:    -23  74  75
1720809611,225:    -43  74  75
1720809611,225:    -47  74  75
1720809611,225:    -24  74  75
1720809611,225:      5  74  75
1720809611,225:      9  74  75
1720809611,225:     -5  74  75
1720809611,225:     -6  74  75
1720809611,257:     22  74  75
1720809611,257:     58  74  75
1720809611,257:     53  74  75
1720809611,257:     -7  74  75
1720809611,257:    -85  74  75
1720809611,257:   -133  74  75
1720809611,257:   -143  74  75
1720809611,257:   -160  74  75
1720809611,257:   -224  74  75
1720809611,257:   -321  74  75
1720809611,257:   -393  74  75
1720809611,257:   -382  74  75
1720809611,257:   -256  74  75
1720809611,257:     -3  74  75
1720809611,257:    411  74  75
1720809611,289:   1064  74  75
1720809611,289:   2031  74  75
1720809611,289:   3289  74  75
1720809611,289:   4644  74  75
1720809611,289:   5816  74  75
1720809611,289:   6635  74  75
1720809611,289:   7169  74  75
1720809611,289:   7594  74  75
1720809611,289:   7917  74  75
1720809611,289:   7849  74  75
1720809611,289:   7046  74  75
1720809611,289:   5504  74  75
1720809611,289:   3662  74  75
1720809611,289:   2069  74  75
1720809611,289:    944  74  75
1720809611,321:     97  74  75
1720809611,321:   -755  74  75
1720809611,321:  -1638  74  75
1720809611,321:  -2310  74  75
1720809611,321:  -2540  74  75
1720809611,321:  -2345  74  75
1720809611,321:  -1946  74  75
1720809611,321:  -1578  74  75
1720809611,321:  -1355  74  75
1720809611,321:  -1270  74  75
1720809611,321:  -1259  74  75
1720809611,321:  -1268  74  75
1720809611,321:  -1254  74  75
1720809611,321:  -1208  74  75
1720809611,321:  -1145  74  75
1720809611,353:  -1096  74  75
1720809611,353:  -1087  74  75
1720809611,353:  -1118  74  75
1720809611,353:  -1170  74  75
1720809611,353:  -1212  74  75
1720809611,353:  -1218  74  75
1720809611,353:  -1186  74  75
1720809611,353:  -1150  74  75
1720809611,353:  -1149  74  75
1720809611,353:  -1184  74  75
1720809611,353:  -1216  74  75
1720809611,353:  -1209  74  75
1720809611,353:  -1161  74  75
1720809611,353:  -1099  74  75
1720809611,353:  -1038  74  75
1720809611,385:   -976  74  75
1720809611,385:   -908  74  75
1720809611,385:   -853  74  75
1720809611,385:   -832  74  75
1720809611,385:   -844  74  75
1720809611,385:   -858  74  75
1720809611,385:   -847  74  75
1720809611,385:   -814  74  75
1720809611,385:   -777  74  75
1720809611,385:   -746  74  75
1720809611,385:   -707  74  75
1720809611,385:   -653  74  75
1720809611,385:   -601  74  75
1720809611,385:   -581  74  75
1720809611,385:   -596  74  75
1720809611,417:   -613  74  75
1720809611,417:   -598  74  75
1720809611,417:   -553  74  75
1720809611,417:   -509  74  75
1720809611,417:   -489  74  75
1720809611,417:   -479  74  75
1720809611,417:   -455  74  75
1720809611,417:   -416  74  75
1720809611,417:   -386  74  75
1720809611,417:   -384  74  75
1720809611,417:   -394  74  75
1720809611,417:   -389  74  75
1720809611,417:   -361  74  75
1720809611,417:   -331  74  75
1720809611,417:   -317  74  75
1720809611,449:   -315  74  75
1720809611,449:   -302  74  75
1720809611,449:   -274  74  75
1720809611,449:   -248  74  75
1720809611,449:   -243  74  75
1720809611,449:   -252  74  75
1720809611,449:   -250  74  75
1720809611,449:   -228  74  75
1720809611,449:   -201  74  75
1720809611,449:   -188  74  75
1720809611,449:   -190  74  75
1720809611,449:   -185  74  75
1720809611,449:   -163  74  75
1720809611,449:   -141  74  75
1720809611,449:   -140  74  75
1720809611,449:   -159  74  75
1720809611,449:   -170  74  75
1720809611,449:   -156  74  75
1720809611,449:   -129  74  75
1720809611,449:   -114  74  75
1720809611,481:   -117  74  75
1720809611,481:   -122  74  75
1720809611,481:   -111  74  75
1720809611,481:    -95  74  75
1720809611,481:    -93  74  75
1720809611,481:   -106  74  75
1720809611,481:   -113  74  75
1720809611,481:   -101  74  75
1720809611,481:    -82  74  75
1720809611,481:    -78  74  75
1720809611,481:    -89  74  75
1720809611,481:    -92  74  75
1720809611,481:    -73  74  75
1720809611,481:    -51  74  75
1720809611,481:    -53  74  75
1720809611,513:    -82  74  75
1720809611,513:   -109  74  75
1720809611,513:   -110  74  75
1720809611,513:    -94  74  75
1720809611,513:    -92  74  75
1720809611,513:   -113  74  75
1720809611,513:   -135  74  75
1720809611,513:   -137  74  75
1720809611,513:   -126  74  75
1720809611,513:   -125  74  75
1720809611,513:   -144  74  75
1720809611,513:   -161  74  75
1720809611,513:   -154  74  75
1720809611,513:   -128  74  75
1720809611,513:   -111  74  75
1720809611,545:   -115  74  75
1720809611,545:   -122  74  75
1720809611,545:   -105  74  75
1720809611,545:    -69  74  75
1720809611,545:    -42  74  75
1720809611,545:    -44  74  75
1720809611,545:    -58  74  75
1720809611,545:    -56  74  75
1720809611,545:    -33  74  75
1720809611,545:     -8  74  75
1720809611,545:      1  74  75
1720809611,545:      0  74  75
1720809611,545:      8  74  75
1720809611,545:     25  74  75
1720809611,545:     36  74  75
1720809611,576:     29  74  75
1720809611,576:     15  74  75
1720809611,576:     15  74  75
1720809611,576:     31  74  75
1720809611,576:     43  74  75
1720809611,576:     33  74  75
1720809611,576:     14  74  75
1720809611,576:      8  74  75
1720809611,576:     20  74  75
1720809611,576:     29  74  75
1720809611,576:     12  74  75
1720809611,576:    -23  74  75
1720809611,576:    -48  74  75
1720809611,576:    -49  74  75
1720809611,576:    -41  74  75
1720809611,576:    -46  74  75
1720809611,576:    -64  74  75
1720809611,576:    -72  74  75
1720809611,576:    -57  74  75
1720809611,576:    -35  74  75
1720809611,576:    -32  74  75
1720809611,576:    -50  74  75
1720809611,576:    -66  74  75
1720809611,606:    -62  74  75
1720809611,606:    -46  74  75
1720809611,606:    -41  74  75
1720809611,606:    -50  74  75
1720809611,606:    -56  74  75
1720809611,606:    -43  74  75
1720809611,606:    -21  74  75
1720809611,606:    -16  74  75
1720809611,606:    -34  74  75
1720809611,606:    -51  74  75
1720809611,606:    -44  74  75
1720809611,606:    -18  74  75
1720809611,606:      0  74  75
1720809611,606:     -4  74  75
1720809611,606:    -17  74  75
1720809611,637:    -11  74  75
1720809611,637:     12  74  75
1720809611,637:     29  74  75
1720809611,637:     19  74  75
1720809611,637:     -6  74  75
1720809611,637:    -16  74  75
1720809611,637:     -3  74  75
1720809611,637:     12  74  75
1720809611,637:      9  74  75
1720809611,637:     -6  74  75
1720809611,637:    -10  74  75
1720809611,637:      5  74  75
1720809611,637:     20  74  75
1720809611,637:     15  74  75
1720809611,637:     -1  74  75
1720809611,669:     -6  74  75
1720809611,669:      9  74  75
1720809611,669:     25  74  75
1720809611,669:     25  74  75
1720809611,669:     16  74  75
1720809611,669:     16  74  75
1720809611,669:     29  74  75
1720809611,669:     36  74  75
1720809611,669:     20  74  75
1720809611,669:     -7  74  75
1720809611,669:    -20  74  75
1720809611,669:    -12  74  75
1720809611,669:      1  74  75
1720809611,669:      1  74  75
1720809611,669:     -8  74  75
1720809611,699:     -5  74  75
1720809611,699:     16  74  75
1720809611,699:     37  74  75
1720809611,699:     36  74  75
1720809611,699:     19  74  75
1720809611,699:      9  74  75
1720809611,699:     19  74  75
1720809611,699:     35  74  75
1720809611,699:     38  74  75
1720809611,699:     25  74  75
1720809611,699:     13  74  75
1720809611,699:     15  74  75
1720809611,699:     21  74  75
1720809611,699:     16  74  75
1720809611,699:     -1  74  75
1720809611,729:    -12  74  75
1720809611,729:     -6  74  75
1720809611,729:      8  74  75
1720809611,729:     12  74  75
1720809611,729:      3  74  75
1720809611,729:     -1  74  75
1720809611,729:     10  74  75
1720809611,729:     26  74  75
1720809611,729:     22  74  75
1720809611,729:     -3  74  75
1720809611,729:    -25  74  75
1720809611,729:    -24  74  75
1720809611,729:     -7  74  75
1720809611,729:      1  74  75
1720809611,729:    -10  74  75
1720809611,761:    -20  74  75
1720809611,761:     -7  74  75
1720809611,761:     19  74  75
1720809611,761:     26  74  75
1720809611,761:      6  74  75
1720809611,761:    -18  74  75
1720809611,761:    -15  74  75
1720809611,761:      9  74  75
1720809611,761:     20  74  75
1720809611,761:      1  74  75
1720809611,761:    -23  74  75
1720809611,761:    -21  74  75
1720809611,761:      4  74  75
1720809611,761:     17  74  75
1720809611,761:     -5  74  75
1720809611,791:    -40  74  75
1720809611,791:    -50  74  75
1720809611,791:    -30  74  75
1720809611,791:    -10  74  75
1720809611,791:    -13  74  75
1720809611,791:    -28  74  75
1720809611,791:    -24  74  75
1720809611,791:      2  74  75
1720809611,791:     20  74  75
1720809611,791:      7  74  75
1720809611,791:    -22  74  75
1720809611,791:    -35  74  75
1720809611,791:    -24  74  75
1720809611,791:    -15  74  75
1720809611,791:    -30  74  75
1720809611,821:    -58  74  75
1720809611,821:    -68  74  75
1720809611,821:    -51  74  75
1720809611,821:    -33  74  75
1720809611,821:    -39  74  75
1720809611,821:    -62  74  75
1720809611,821:    -73  74  75
1720809611,821:    -57  74  75
1720809611,821:    -34  74  75
1720809611,821:    -30  74  75
1720809611,821:    -43  74  75
1720809611,821:    -48  74  75
1720809611,821:    -32  74  75
1720809611,821:    -12  74  75
1720809611,821:    -12  74  75
1720809611,850:    -33  74  75
1720809611,850:    -48  74  75
1720809611,850:    -35  74  75
1720809611,850:     -9  74  75
1720809611,850:      1  74  75
1720809611,850:    -11  74  75
1720809611,850:    -22  74  75
1720809611,850:    -12  74  75
1720809611,850:      8  74  75
1720809611,850:     10  74  75
1720809611,850:    -12  74  75
1720809611,850:    -37  74  75
1720809611,850:    -38  74  75
1720809611,850:    -21  74  75
1720809611,850:    -12  74  75
1720809611,850:    -20  74  75
1720809611,850:    -26  74  75
1720809611,850:     -9  74  75
1720809611,850:     22  74  75
1720809611,850:     38  74  75
1720809611,850:     25  74  75
1720809611,850:      4  74  75
1720809611,880:      5  74  75
1720809611,880:     27  74  75
1720809611,880:     42  74  75
1720809611,880:     33  74  75
1720809611,880:     13  74  75
1720809611,880:      9  74  75
1720809611,880:     25  74  75
1720809611,880:     40  74  75
1720809611,912:     35  74  75
1720809611,912:     19  74  75
1720809611,912:     13  74  75
1720809611,912:     26  74  75
1720809611,912:     42  74  75
1720809611,912:     48  74  75
1720809611,912:     51  74  75
1720809611,912:     63  74  75
1720809611,912:     83  74  75
1720809611,912:     96  74  75
1720809611,912:     93  74  75
1720809611,912:     83  74  75
1720809611,912:     84  74  75
1720809611,912:     92  74  75
1720809611,912:     92  74  75
1720809611,943:     76  74  75
1720809611,943:     56  74  75
1720809611,943:     52  74  75
1720809611,943:     62  74  75
1720809611,943:     68  74  75
1720809611,943:     60  74  75
1720809611,943:     54  74  75
1720809611,943:     74  74  75
1720809611,943:    118  74  75
1720809611,943:    163  74  75
1720809611,943:    188  74  75
1720809611,943:    203  74  75
1720809611,943:    226  74  75
1720809611,943:    262  74  75
1720809611,943:    287  74  75
1720809611,943:    282  74  75
1720809611,943:    251  74  75
1720809611,943:    220  74  75
1720809611,943:    203  74  75
1720809611,943:    193  74  75
1720809611,943:    175  74  75
1720809611,943:    150  74  75
1720809611,973:    133  74  75
1720809611,973:    131  74  75
1720809611,973:    130  74  75
1720809611,973:    110  74  75
1720809611,973:     72  74  75
1720809611,973:     39  74  75
