timestamp: ADC HeartRate4sAverage HeartRate30sAverage
1720777046,237:    439  67  80
1720777046,237:    441  67  80
1720777046,237:    406  67  80
1720777046,237:    386  67  80
1720777046,237:    417  67  80
1720777046,237:    462  67  80
1720777046,237:    467  67  80
1720777046,237:    430  67  80
1720777046,237:    406  67  80
1720777046,237:    431  67  80
1720777046,237:    468  67  80
1720777046,237:    459  67  80
1720777046,237:    405  67  80
1720777046,237:    366  67  80
1720777046,237:    384  67  80
1720777046,269:    426  67  80
1720777046,269:    430  67  80
1720777046,269:    387  67  80
1720777046,269:    355  67  80
1720777046,269:    383  67  80
1720777046,269:    438  67  80
1720777046,269:    451  67  80
1720777046,269:    404  67  80
1720777046,269:    351  67  80
1720777046,269:    348  67  80
1720777046,269:    377  67  80
1720777046,269:    377  67  80
1720777046,269:    328  67  80
1720777046,269:    280  67  80
1720777046,269:    294  67  80
1720777046,299:    352  67  80
1720777046,299:    386  67  80
1720777046,299:    359  67  80
1720777046,299:    320  67  80
1720777046,299:    331  67  80
1720777046,299:    386  67  80
1720777046,299:    416  67  80
1720777046,299:    382  67  80
1720777046,299:    330  67  80
1720777046,299:    336  67  80
1720777046,299:    403  67  80
1720777046,299:    457  67  80
1720777046,299:    446  67  80
1720777046,299:    404  67  80
1720777046,299:    403  67  80
1720777046,330:    457  67  80
1720777046,330:    499  67  80
1720777046,330:    472  67  80
1720777046,330:    402  67  80
1720777046,330:    365  67  80
1720777046,330:    387  67  80
1720777046,330:    417  67  80
1720777046,330:    402  67  80
1720777046,330:    360  67  80
1720777046,330:    351  67  80
1720777046,330:    393  67  80
1720777046,330:    436  67  80
1720777046,330:    428  67  80
1720777046,330:    385  67  80
1720777046,330:    365  67  80
1720777046,330:    390  67  80
1720777046,330:    415  67  80
1720777046,330:    393  67  80
1720777046,330:    340  67  80
1720777046,330:    314  67  80
1720777046,330:    342  67  80
1720777046,330:    379  67  80
1720777046,362:    371  67  80
1720777046,362:    325  67  80
1720777046,362:    298  67  80
1720777046,362:    323  67  80
1720777046,362:    361  67  80
1720777046,362:    361  67  80
1720777046,362:    327  67  80
1720777046,362:    320  67  80
1720777046,393:    371  67  80
1720777046,393:    443  67  80
1720777046,393:    481  67  80
1720777046,393:    477  67  80
1720777046,393:    459  67  80
1720777046,393:    416  67  80
1720777046,393:    277  67  80
1720777046,393:    -10  67  80
1720777046,393:   -411  67  80
1720777046,393:   -823  67  80
1720777046,393:  -1153  67  80
1720777046,393:  -1371  67  80
1720777046,393:  -1459  67  80
1720777046,393:  -1366  67  80
1720777046,393:  -1004  67  80
1720777046,393:   -310  67  80
1720777046,393:    723  67  80
1720777046,393:   2069  67  80
1720777046,393:   3675  67  80
1720777046,393:   5445  67  80
1720777046,423:   7240  62  72
1720777046,423:   8946  62  72
1720777046,423:  10531  62  72
1720777046,423:  12015  62  72
1720777046,423:  13354  62  72
1720777046,423:  14393  62  72
1720777046,423:  14958  62  72
1720777046,423:  14985  62  72
1720777046,423:  14511  62  72
1720777046,423:  13542  62  72
1720777046,423:  11995  62  72
1720777046,423:   9839  62  72
1720777046,423:   7284  62  72
1720777046,423:   4750  62  72
1720777046,454:   2588  62  72
1720777046,454:    848  62  72
1720777046,454:   -644  62  72
1720777046,454:  -1981  62  72
1720777046,454:  -2995  62  72
1720777046,454:  -3428  62  72
1720777046,454:  -3244  62  72
1720777046,454:  -2743  62  72
1720777046,454:  -2336  62  72
1720777046,454:  -2241  62  72
1720777046,454:  -2387  62  72
1720777046,454:  -2587  62  72
1720777046,454:  -2746  62  72
1720777046,454:  -2902  62  72
1720777046,454:  -3107  62  72
1720777046,486:  -3328  62  72
1720777046,486:  -3476  62  72
1720777046,486:  -3504  62  72
1720777046,486:  -3435  62  72
1720777046,486:  -3314  62  72
1720777046,486:  -3156  62  72
1720777046,486:  -2954  62  72
1720777046,486:  -2742  62  72
1720777046,486:  -2606  62  72
1720777046,486:  -2616  62  72
1720777046,486:  -2736  62  72
1720777046,486:  -2843  62  72
1720777046,486:  -2833  62  72
1720777046,486:  -2707  62  72
1720777046,486:  -2540  62  72
1720777046,517:  -2389  62  72
1720777046,517:  -2254  62  72
1720777046,517:  -2123  62  72
1720777046,517:  -2024  62  72
1720777046,517:  -1999  62  72
1720777046,517:  -2039  62  72
1720777046,517:  -2067  62  72
1720777046,517:  -2011  62  72
1720777046,517:  -1879  62  72
1720777046,517:  -1743  62  72
1720777046,517:  -1655  62  72
1720777046,517:  -1602  62  72
1720777046,517:  -1542  62  72
1720777046,517:  -1472  62  72
1720777046,517:  -1430  62  72
1720777046,548:  -1433  62  72
1720777046,548:  -1443  62  72
1720777046,548:  -1405  62  72
1720777046,548:  -1319  62  72
1720777046,548:  -1238  62  72
1720777046,548:  -1200  62  72
1720777046,548:  -1184  62  72
1720777046,548:  -1145  62  72
1720777046,548:  -1076  62  72
1720777046,548:  -1023  62  72
1720777046,548:  -1016  62  72
1720777046,548:  -1024  62  72
1720777046,548:   -994  62  72
1720777046,548:   -921  62  72
1720777046,548:   -858  62  72
1720777046,579:   -846  62  72
1720777046,579:   -855  62  72
1720777046,579:   -825  62  72
1720777046,579:   -745  62  72
1720777046,579:   -674  62  72
1720777046,579:   -664  62  72
1720777046,579:   -692  62  72
1720777046,579:   -687  62  72
1720777046,579:   -622  62  72
1720777046,579:   -553  62  72
1720777046,579:   -541  62  72
1720777046,579:   -576  62  72
1720777046,579:   -587  62  72
1720777046,579:   -534  62  72
1720777046,579:   -463  62  72
1720777046,610:   -445  62  72
1720777046,610:   -479  62  72
1720777046,610:   -497  62  72
1720777046,610:   -454  62  72
1720777046,610:   -386  62  72
1720777046,610:   -362  62  72
1720777046,610:   -389  62  72
1720777046,610:   -406  62  72
1720777046,610:   -364  62  72
1720777046,610:   -299  62  72
1720777046,610:   -273  62  72
1720777046,610:   -301  62  72
1720777046,610:   -324  62  72
1720777046,610:   -296  62  72
1720777046,610:   -247  62  72
1720777046,641:   -237  62  72
1720777046,641:   -276  62  72
1720777046,641:   -306  62  72
1720777046,641:   -275  62  72
1720777046,641:   -210  62  72
1720777046,641:   -177  62  72
1720777046,641:   -198  62  72
1720777046,641:   -225  62  72
1720777046,641:   -204  62  72
1720777046,641:   -149  62  72
1720777046,641:   -121  62  72
1720777046,641:   -145  62  72
1720777046,641:   -175  62  72
1720777046,641:   -156  62  72
1720777046,641:    -95  62  72
1720777046,641:    -52  62  72
1720777046,641:    -58  62  72
1720777046,641:    -75  62  72
1720777046,641:    -44  62  72
1720777046,641:     31  62  72
1720777046,641:     88  62  72
1720777046,641:     90  62  72
1720777046,641:     73  62  72
1720777046,673:    107  62  72
1720777046,673:    197  62  72
1720777046,673:    281  62  72
1720777046,673:    308  62  72
1720777046,673:    302  62  72
1720777046,673:    333  62  72
1720777046,673:    419  62  72
1720777046,673:    505  62  72
1720777046,673:    534  62  72
1720777046,673:    516  62  72
1720777046,673:    514  62  72
1720777046,673:    561  62  72
1720777046,673:    619  62  72
1720777046,673:    637  62  72
1720777046,673:    617  62  72
1720777046,704:    609  62  72
1720777046,704:    636  62  72
1720777046,704:    669  62  72
1720777046,704:    669  62  72
1720777046,704:    644  62  72
1720777046,704:    636  62  72
1720777046,704:    665  62  72
1720777046,704:    692  62  72
1720777046,704:    676  62  72
1720777046,704:    629  62  72
1720777046,704:    601  62  72
1720777046,704:    618  62  72
1720777046,704:    640  62  72
1720777046,704:    618  62  72
1720777046,704:    557  62  72
1720777046,735:    515  62  72
1720777046,735:    529  62  72
1720777046,735:    564  62  72
1720777046,735:    564  62  72
1720777046,735:    521  62  72
1720777046,735:    489  62  72
1720777046,735:    512  62  72
1720777046,735:    560  62  72
1720777046,735:    569  62  72
1720777046,735:    523  62  72
1720777046,735:    477  62  72
1720777046,735:    486  62  72
1720777046,735:    535  62  72
1720777046,735:    556  62  72
1720777046,735:    516  62  72
1720777046,766:    461  62  72
1720777046,766:    456  62  72
1720777046,766:    502  62  72
1720777046,766:    536  62  72
1720777046,766:    514  62  72
1720777046,766:    467  62  72
1720777046,766:    459  62  72
1720777046,766:    498  62  72
1720777046,766:    531  62  72
1720777046,766:    514  62  72
1720777046,766:    470  62  72
1720777046,766:    458  62  72
1720777046,766:    488  62  72
1720777046,766:    508  62  72
1720777046,766:    476  62  72
1720777046,797:    422  62  72
1720777046,797:    406  62  72
1720777046,797:    442  62  72
1720777046,797:    473  62  72
1720777046,797:    450  62  72
1720777046,797:    393  62  72
1720777046,797:    370  62  72
1720777046,797:    402  62  72
1720777046,797:    440  62  72
1720777046,797:    432  62  72
1720777046,797:    387  62  72
1720777046,797:    367  62  72
1720777046,797:    398  62  72
1720777046,797:    436  62  72
1720777046,797:    430  62  72
1720777046,829:    389  62  72
1720777046,829:    372  62  72
1720777046,829:    402  62  72
1720777046,829:    435  62  72
1720777046,829:    420  62  72
1720777046,829:    373  62  72
1720777046,829:    358  62  72
1720777046,829:    397  62  72
1720777046,829:    441  62  72
1720777046,829:    427  62  72
1720777046,829:    366  62  72
1720777046,829:    327  62  72
1720777046,829:    348  62  72
1720777046,829:    387  62  72
1720777046,829:    381  62  72
1720777046,861:    328  62  72
1720777046,861:    295  62  72
1720777046,861:    324  62  72
1720777046,861:    381  62  72
1720777046,861:    401  62  72
1720777046,861:    371  62  72
1720777046,861:    345  62  72
1720777046,861:    366  62  72
1720777046,861:    407  62  72
1720777046,861:    409  62  72
1720777046,861:    357  62  72
1720777046,861:    304  62  72
1720777046,861:    303  62  72
1720777046,861:    337  62  72
1720777046,861:    345  62  72
1720777046,891:    303  62  72
1720777046,891:    251  62  72
1720777046,891:    248  62  72
1720777046,891:    289  62  72
1720777046,891:    317  62  72
1720777046,891:    297  62  72
1720777046,891:    258  62  72
1720777046,891:    255  62  72
1720777046,891:    293  62  72
1720777046,891:    323  62  72
1720777046,891:    307  62  72
1720777046,891:    266  62  72
1720777046,891:    254  62  72
1720777046,891:    282  62  72
1720777046,891:    305  62  72
1720777046,921:    284  62  72
1720777046,921:    239  62  72
1720777046,921:    224  62  72
1720777046,921:    254  62  72
1720777046,921:    283  62  72
1720777046,921:    272  62  72
1720777046,921:    240  62  72
1720777046,921:    237  62  72
1720777046,921:    272  62  72
1720777046,921:    297  62  72
1720777046,921:    273  62  72
1720777046,921:    224  62  72
1720777046,921:    214  62  72
1720777046,921:    254  62  72
1720777046,921:    288  62  72
1720777046,921:    264  62  72
1720777046,921:    206  62  72
1720777046,921:    187  62  72
1720777046,921:    231  62  72
1720777046,921:    280  62  72
1720777046,921:    270  62  72
1720777046,921:    214  62  72
1720777046,952:    186  62  72
1720777046,952:    225  62  72
1720777046,952:    282  62  72
1720777046,952:    290  62  72
1720777046,952:    249  62  72
1720777046,952:    226  62  72
1720777046,952:    263  62  72
1720777046,952:    319  62  72
1720777046,984:    327  62  72
1720777046,984:    285  62  72
1720777046,984:    259  62  72
1720777046,984:    292  62  72
1720777046,984:    348  62  72
1720777046,984:    356  62  72
1720777046,984:    306  62  72
1720777046,984:    262  62  72
1720777046,984:    284  62  72
1720777046,984:    344  62  72
1720777046,984:    372  62  72
1720777046,984:    342  62  72
1720777046,984:    309  62  72
1720777046,984:    334  62  72
1720777046,984:    402  62  72
1720777047,016:    441  62  72
1720777047,016:    412  62  72
1720777047,016:    359  62  72
1720777047,016:    350  62  72
1720777047,016:    389  62  72
1720777047,016:    412  62  72
1720777047,016:    376  62  72
1720777047,016:    313  62  72
1720777047,016:    296  62  72
1720777047,016:    337  62  72
1720777047,016:    380  62  72
1720777047,016:    375  62  72
1720777047,016:    337  62  72
1720777047,016:    328  62  72
1720777047,016:    367  62  72
1720777047,016:    405  62  72
1720777047,016:    398  62  72
1720777047,016:    358  62  72
1720777047,016:    342  62  72
1720777047,016:    370  62  72
1720777047,016:    399  62  72
1720777047,016:    384  62  72
1720777047,047:    338  62  72
1720777047,047:    316  62  72
1720777047,047:    340  62  72
1720777047,047:    373  62  72
1720777047,047:    367  62  72
1720777047,047:    330  62  72
1720777047,047:    312  62  72
1720777047,047:    336  62  72
1720777047,047:    367  62  72
1720777047,047:    360  62  72
1720777047,047:    319  62  72
1720777047,047:    295  62  72
1720777047,047:    316  62  72
1720777047,047:    349  62  72
1720777047,047:    346  62  72
1720777047,079:    309  62  72
1720777047,079:    289  62  72
1720777047,079:    318  62  72
1720777047,079:    362  62  72
1720777047,079:    368  62  72
1720777047,079:    330  62  72
1720777047,079:    303  62  72
1720777047,079:    324  62  72
1720777047,079:    363  62  72
1720777047,079:    360  62  72
1720777047,079:    308  62  72
1720777047,079:    263  62  72
1720777047,079:    272  62  72
1720777047,079:    312  62  72
1720777047,079:    318  62  72
1720777047,112:    276  62  72
1720777047,112:    236  62  72
1720777047,112:    249  62  72
1720777047,112:    294  62  72
1720777047,112:    311  62  72
1720777047,112:    279  62  72
1720777047,112:    242  62  72
1720777047,112:    251  62  72
1720777047,112:    293  62  72
1720777047,112:    309  62  72
1720777047,112:    279  62  72
1720777047,112:    244  62  72
1720777047,112:    254  62  72
1720777047,112:    298  62  72
1720777047,112:    316  62  72
1720777047,112:    282  62  72
1720777047,112:    236  62  72
1720777047,112:    236  62  72
1720777047,112:    279  62  72
1720777047,112:    308  62  72
1720777047,112:    287  62  72
1720777047,112:    249  62  72
1720777047,112:    248  62  72
1720777047,142:    288  62  72
1720777047,142:    315  62  72
1720777047,142:    288  62  72
1720777047,142:    239  62  72
1720777047,142:    231  62  72
1720777047,142:    273  62  72
1720777047,142:    307  62  72
1720777047,173:    286  62  72
1720777047,173:    232  62  72
1720777047,173:    214  62  72
1720777047,173:    252  62  72
1720777047,173:    294  62  72
1720777047,173:    286  62  72
1720777047,173:    242  62  72
1720777047,173:    231  62  72
1720777047,173:    277  62  72
1720777047,173:    329  62  72
1720777047,173:    330  62  72
1720777047,173:    288  62  72
1720777047,173:    270  62  72
1720777047,173:    306  62  72
1720777047,173:    348  62  72
1720777047,205:    336  62  72
1720777047,205:    276  62  72
1720777047,205:    237  62  72
1720777047,205:    261  62  72
1720777047,205:    312  62  72
1720777047,205:    324  62  72
1720777047,205:    289  62  72
1720777047,205:    263  62  72
1720777047,205:    289  62  72
1720777047,205:    337  62  72
1720777047,205:    348  62  72
1720777047,205:    311  62  72
1720777047,205:    276  62  72
1720777047,205:    288  62  72
1720777047,205:    325  62  72
1720777047,205:    332  62  72
1720777047,205:    293  62  72
1720777047,205:    255  62  72
1720777047,205:    265  62  72
1720777047,205:    304  62  72
1720777047,205:    315  62  72
1720777047,205:    281  62  72
1720777047,205:    248  62  72
1720777047,236:    265  62  72
1720777047,236:    314  62  72
1720777047,236:    332  62  72
1720777047,236:    297  62  72
1720777047,236:    257  62  72
1720777047,236:    272  62  72
1720777047,236:    328  62  72
1720777047,236:    359  62  72
1720777047,236:    331  62  72
1720777047,236:    285  62  72
1720777047,236:    288  62  72
1720777047,236:    338  62  72
1720777047,236:    370  62  72
1720777047,236:    342  62  72
1720777047,236:    285  62  72
1720777047,267:    264  62  72
1720777047,267:    292  62  72
1720777047,267:    315  62  72
1720777047,267:    287  62  72
1720777047,267:    233  62  72
1720777047,267:    216  62  72
1720777047,267:    255  62  72
1720777047,267:    297  62  72
1720777047,267:    290  62  72
1720777047,267:    246  62  72
1720777047,267:    225  62  72
1720777047,267:    253  62  72
1720777047,267:    284  62  72
1720777047,267:    269  62  72
1720777047,267:    217  62  72
1720777047,298:    195  62  72
1720777047,298:    236  62  72
1720777047,298:    298  62  72
1720777047,298:    320  62  72
1720777047,298:    296  62  72
1720777047,298:    284  62  72
1720777047,298:    321  62  72
1720777047,298:    369  62  72
1720777047,298:    368  62  72
1720777047,298:    315  62  72
1720777047,298:    270  62  72
1720777047,298:    275  62  72
1720777047,298:    298  62  72
1720777047,298:    281  62  72
1720777047,298:    224  62  72
1720777047,329:    189  62  72
1720777047,329:    220  62  72
1720777047,329:    279  62  72
1720777047,329:    293  62  72
1720777047,329:    251  62  72
1720777047,329:    214  62  72
1720777047,329:    234  62  72
1720777047,329:    283  62  72
1720777047,329:    293  62  72
1720777047,329:    248  62  72
1720777047,329:    203  62  72
1720777047,329:    207  62  72
1720777047,329:    240  62  72
1720777047,329:    241  62  72
1720777047,329:    194  62  72
1720777047,361:    153  62  72
1720777047,361:    168  62  72
1720777047,361:    214  62  72
1720777047,361:    227  62  72
1720777047,361:    191  62  72
1720777047,361:    162  62  72
1720777047,361:    198  62  72
1720777047,361:    281  62  72
1720777047,361:    345  62  72
1720777047,361:    362  62  72
1720777047,361:    362  62  72
1720777047,361:    362  62  72
1720777047,361:    306  62  72
1720777047,361:    109  62  72
1720777047,361:   -239  62  72
1720777047,393:   -655  62  72
1720777047,393:  -1037  62  72
1720777047,393:  -1332  62  72
1720777047,393:  -1528  62  72
1720777047,393:  -1577  62  72
1720777047,393:  -1388  62  72
1720777047,393:   -876  62  72
1720777047,393:    -27  62  72
1720777047,393:   1130  62  72
1720777047,393:   2573  62  72
1720777047,393:   4263  62  72
1720777047,393:   6094  62  72
1720777047,393:   7901  62  72
1720777047,393:   9566  62  72
1720777047,393:  11094  62  72
1720777047,393:  12523  62  72
1720777047,393:  13794  62  72
1720777047,393:  14716  62  72
1720777047,393:  15120  62  72
1720777047,393:  14983  62  72
1720777047,393:  14370  62  72
1720777047,393:  13260  62  72
1720777047,424:  11540  62  66
1720777047,424:   9209  62  66
1720777047,424:   6562  62  66
1720777047,424:   4066  62  66
1720777047,424:   2015  62  66
1720777047,424:    347  62  66
1720777047,424:  -1153  62  66
1720777047,424:  -2498  62  66
1720777047,424:  -3422  62  66
1720777047,424:  -3668  62  66
1720777047,424:  -3320  62  66
1720777047,424:  -2783  62  66
1720777047,424:  -2455  62  66
1720777047,455:  -2445  62  66
1720777047,455:  -2604  62  66
1720777047,455:  -2763  62  66
1720777047,455:  -2899  62  66
1720777047,455:  -3078  62  66
1720777047,455:  -3313  62  66
1720777047,455:  -3528  62  66
1720777047,455:  -3640  62  66
1720777047,455:  -3643  62  66
1720777047,455:  -3579  62  66
1720777047,455:  -3466  62  66
1720777047,455:  -3290  62  66
1720777047,455:  -3055  62  66
1720777047,455:  -2839  62  66
1720777047,455:  -2748  62  66
1720777047,486:  -2816  62  66
1720777047,486:  -2950  62  66
1720777047,486:  -3018  62  66
1720777047,486:  -2958  62  66
1720777047,486:  -2817  62  66
1720777047,486:  -2664  62  66
1720777047,486:  -2524  62  66
1720777047,486:  -2376  62  66
1720777047,486:  -2232  62  66
1720777047,486:  -2149  62  66
1720777047,486:  -2158  62  66
1720777047,486:  -2213  62  66
1720777047,486:  -2220  62  66
1720777047,486:  -2138  62  66
1720777047,486:  -2015  62  66
1720777047,518:  -1916  62  66
1720777047,518:  -1854  62  66
1720777047,518:  -1791  62  66
1720777047,518:  -1708  62  66
1720777047,518:  -1643  62  66
1720777047,518:  -1632  62  66
1720777047,518:  -1648  62  66
1720777047,518:  -1622  62  66
1720777047,518:  -1530  62  66
1720777047,518:  -1422  62  66
1720777047,518:  -1363  62  66
1720777047,518:  -1352  62  66
1720777047,518:  -1330  62  66
1720777047,518:  -1261  62  66
1720777047,518:  -1185  62  66
1720777047,550:  -1155  62  66
1720777047,550:  -1170  62  66
1720777047,550:  -1170  62  66
1720777047,550:  -1114  62  66
1720777047,550:  -1038  62  66
1720777047,550:   -998  62  66
1720777047,550:   -999  62  66
1720777047,550:   -988  62  66
1720777047,550:   -926  62  66
1720777047,550:   -846  62  66
1720777047,550:   -807  62  66
1720777047,550:   -820  62  66
1720777047,550:   -831  62  66
1720777047,550:   -795  62  66
1720777047,550:   -736  62  66
1720777047,550:   -708  62  66
1720777047,550:   -727  62  66
1720777047,550:   -744  62  66
1720777047,550:   -712  62  66
1720777047,550:   -653  62  66
1720777047,550:   -625  62  66
1720777047,550:   -646  62  66
1720777047,581:   -669  62  66
1720777047,581:   -641  62  66
1720777047,581:   -578  62  66
1720777047,581:   -548  62  66
1720777047,581:   -579  62  66
1720777047,581:   -622  62  66
1720777047,581:   -609  62  66
1720777047,581:   -544  62  66
1720777047,581:   -493  62  66
1720777047,581:   -504  62  66
1720777047,581:   -541  62  66
1720777047,581:   -537  62  66
1720777047,581:   -477  62  66
1720777047,581:   -419  62  66
1720777047,581:   -413  62  66
1720777047,611:   -442  62  66
1720777047,611:   -444  62  66
1720777047,611:   -397  62  66
1720777047,611:   -348  62  66
1720777047,611:   -344  62  66
1720777047,611:   -370  62  66
1720777047,611:   -370  62  66
1720777047,611:   -327  62  66
1720777047,643:   -281  62  66
1720777047,643:   -282  62  66
1720777047,643:   -314  62  66
1720777047,643:   -320  62  66
1720777047,643:   -274  62  66
1720777047,643:   -219  62  66
1720777047,643:   -204  62  66
1720777047,643:   -221  62  66
1720777047,643:   -215  62  66
1720777047,643:   -157  62  66
1720777047,643:    -86  62  66
1720777047,643:    -54  62  66
1720777047,643:    -57  62  66
1720777047,643:    -35  62  66
1720777047,643:     44  62  66
1720777047,643:    135  62  66
1720777047,643:    181  62  66
1720777047,643:    184  62  66
1720777047,643:    202  62  66
1720777047,643:    273  62  66
1720777047,643:    358  62  66
1720777047,643:    395  62  66
1720777047,674:    382  62  66
1720777047,674:    382  62  66
1720777047,674:    439  62  66
1720777047,674:    516  62  66
1720777047,674:    549  62  66
1720777047,674:    529  62  66
1720777047,674:    516  62  66
1720777047,674:    557  62  66
1720777047,674:    621  62  66
1720777047,674:    639  62  66
1720777047,674:    598  62  66
1720777047,674:    553  62  66
1720777047,674:    560  62  66
1720777047,674:    600  62  66
1720777047,674:    612  62  66
1720777047,706:    574  62  66
1720777047,706:    533  62  66
1720777047,706:    540  62  66
1720777047,706:    580  62  66
1720777047,706:    595  62  66
1720777047,706:    560  62  66
1720777047,706:    514  62  66
1720777047,706:    509  62  66
1720777047,706:    539  62  66
1720777047,706:    548  62  66
1720777047,706:    508  62  66
1720777047,706:    452  62  66
1720777047,706:    435  62  66
1720777047,706:    456  62  66
1720777047,706:    464  62  66
1720777047,738:    429  62  66
1720777047,738:    381  62  66
1720777047,738:    378  62  66
1720777047,738:    423  62  66
1720777047,738:    459  62  66
1720777047,738:    442  62  66
1720777047,738:    398  62  66
1720777047,738:    391  62  66
1720777047,738:    435  62  66
1720777047,738:    475  62  66
1720777047,738:    461  62  66
1720777047,738:    412  62  66
1720777047,738:    392  62  66
1720777047,738:    424  62  66
1720777047,738:    458  62  66
1720777047,770:    443  62  66
1720777047,770:    391  62  66
1720777047,770:    366  62  66
1720777047,770:    395  62  66
1720777047,770:    430  62  66
1720777047,770:    417  62  66
1720777047,770:    361  62  66
1720777047,770:    329  62  66
1720777047,770:    356  62  66
1720777047,770:    402  62  66
1720777047,770:    403  62  66
1720777047,770:    354  62  66
1720777047,770:    317  62  66
1720777047,770:    337  62  66
1720777047,770:    383  62  66
1720777047,801:    390  62  66
1720777047,801:    345  62  66
1720777047,801:    302  62  66
1720777047,801:    313  62  66
1720777047,801:    355  62  66
1720777047,801:    366  62  66
1720777047,801:    327  62  66
1720777047,801:    286  62  66
1720777047,801:    293  62  66
1720777047,801:    334  62  66
1720777047,801:    349  62  66
1720777047,801:    317  62  66
1720777047,801:    282  62  66
1720777047,801:    293  62  66
1720777047,801:    336  62  66
1720777047,801:    353  62  66
1720777047,801:    319  62  66
1720777047,801:    278  62  66
1720777047,801:    279  62  66
1720777047,801:    308  62  66
1720777047,801:    309  62  66
1720777047,801:    262  62  66
1720777047,801:    212  62  66
1720777047,833:    215  62  66
1720777047,833:    257  62  66
1720777047,833:    275  62  66
1720777047,833:    240  62  66
1720777047,833:    195  62  66
1720777047,833:    199  62  66
1720777047,833:    246  62  66
1720777047,865:    273  62  66
1720777047,865:    239  62  66
1720777047,865:    184  62  66
1720777047,865:    174  62  66
1720777047,865:    218  62  66
1720777047,865:    253  62  66
1720777047,865:    230  62  66
1720777047,865:    175  62  66
1720777047,865:    153  62  66
1720777047,865:    186  62  66
1720777047,865:    220  62  66
1720777047,865:    201  62  66
1720777047,865:    146  62  66
1720777047,865:    117  62  66
1720777047,865:    141  62  66
1720777047,865:    175  62  66
1720777047,865:    166  62  66
1720777047,865:    124  62  66
1720777047,865:    106  62  66
1720777047,865:    136  62  66
1720777047,865:    174  62  66
1720777047,865:    166  62  66
1720777047,865:    119  62  66
1720777047,896:     93  62  66
1720777047,896:    120  62  66
1720777047,896:    164  62  66
1720777047,896:    166  62  66
1720777047,896:    125  62  66
1720777047,896:     99  62  66
1720777047,896:    127  62  66
1720777047,896:    181  62  66
1720777047,896:    199  62  66
1720777047,896:    172  62  66
1720777047,896:    150  62  66
1720777047,896:    177  62  66
1720777047,896:    227  62  66
1720777047,896:    237  62  66
1720777047,896:    194  62  66
1720777047,927:    154  62  66
1720777047,927:    169  62  66
1720777047,927:    220  62  66
1720777047,927:    238  62  66
1720777047,927:    200  62  66
1720777047,927:    158  62  66
1720777047,927:    174  62  66
1720777047,927:    232  62  66
1720777047,927:    261  62  66
1720777047,927:    228  62  66
1720777047,927:    183  62  66
1720777047,927:    190  62  66
1720777047,927:    241  62  66
1720777047,927:    262  62  66
1720777047,927:    218  62  66
1720777047,958:    158  62  66
1720777047,958:    158  62  66
1720777047,958:    216  62  66
1720777047,958:    255  62  66
1720777047,958:    226  62  66
1720777047,958:    170  62  66
1720777047,958:    164  62  66
1720777047,958:    214  62  66
1720777047,958:    253  62  66
1720777047,958:    227  62  66
1720777047,958:    172  62  66
1720777047,958:    162  62  66
1720777047,958:    211  62  66
1720777047,958:    257  62  66
1720777047,958:    244  62  66
1720777047,989:    196  62  66
1720777047,989:    182  62  66
1720777047,989:    221  62  66
1720777047,989:    256  62  66
1720777047,989:    234  62  66
1720777047,989:    180  62  66
1720777047,989:    162  62  66
1720777047,989:    206  62  66
1720777047,989:    253  62  66
1720777047,989:    242  62  66
1720777047,989:    189  62  66
1720777047,989:    166  62  66
1720777047,989:    207  62  66
1720777047,989:    260  62  66
1720777047,989:    258  62  66
1720777048,021:    205  62  66
1720777048,021:    171  62  66
1720777048,021:    199  62  66
1720777048,021:    250  62  66
1720777048,021:    257  62  66
1720777048,021:    212  62  66
1720777048,021:    180  62  66
1720777048,021:    204  62  66
1720777048,021:    249  62  66
1720777048,021:    251  62  66
1720777048,021:    200  62  66
1720777048,021:    157  62  66
1720777048,021:    175  62  66
1720777048,021:    225  62  66
1720777048,021:    241  62  66
1720777048,021:    202  62  66
1720777048,021:    159  62  66
1720777048,021:    166  62  66
1720777048,021:    207  62  66
1720777048,021:    225  62  66
1720777048,021:    199  62  66
1720777048,021:    173  62  66
1720777048,053:    193  62  66
1720777048,053:    242  62  66
1720777048,053:    263  62  66
1720777048,053:    236  62  66
1720777048,053:    206  62  66
1720777048,053:    221  62  66
1720777048,053:    267  62  66
1720777048,053:    281  62  66
1720777048,084:    240  62  66
1720777048,084:    189  62  66
1720777048,084:    187  62  66
1720777048,084:    228  62  66
1720777048,084:    252  62  66
1720777048,084:    226  62  66
1720777048,084:    185  62  66
1720777048,084:    187  62  66
1720777048,084:    232  62  66
1720777048,084:    264  62  66
1720777048,084:    245  62  66
1720777048,084:    203  62  66
1720777048,084:    196  62  66
1720777048,084:    232  62  66
1720777048,084:    260  62  66
1720777048,084:    239  62  66
1720777048,084:    193  62  66
1720777048,084:    181  62  66
1720777048,084:    214  62  66
1720777048,084:    244  62  66
1720777048,084:    225  62  66
1720777048,084:    179  62  66
1720777048,115:    166  62  66
1720777048,115:    204  62  66
1720777048,115:    241  62  66
1720777048,115:    226  62  66
1720777048,115:    177  62  66
1720777048,115:    158  62  66
1720777048,115:    196  62  66
1720777048,115:    242  62  66
1720777048,115:    234  62  66
1720777048,115:    183  62  66
1720777048,115:    160  62  66
1720777048,115:    203  62  66
1720777048,115:    265  62  66
1720777048,115:    271  62  66
1720777048,115:    217  62  66
1720777048,147:    176  62  66
1720777048,147:    200  62  66
1720777048,147:    251  62  66
1720777048,147:    255  62  66
1720777048,147:    196  62  66
1720777048,147:    142  62  66
1720777048,147:    157  62  66
1720777048,147:    216  62  66
1720777048,147:    241  62  66
1720777048,147:    205  62  66
1720777048,147:    161  62  66
1720777048,147:    172  62  66
1720777048,147:    225  62  66
1720777048,147:    249  62  66
1720777048,147:    211  62  66
1720777048,178:    156  62  66
1720777048,178:    150  62  66
1720777048,178:    193  62  66
1720777048,178:    224  62  66
1720777048,178:    204  62  66
1720777048,178:    167  62  66
1720777048,178:    168  62  66
1720777048,178:    207  62  66
1720777048,178:    232  62  66
1720777048,178:    208  62  66
1720777048,178:    169  62  66
1720777048,178:    170  62  66
1720777048,178:    211  62  66
1720777048,178:    235  62  66
1720777048,178:    205  62  66
1720777048,208:    153  62  66
1720777048,208:    143  62  66
1720777048,208:    185  62  66
1720777048,208:    222  62  66
1720777048,208:    206  62  66
1720777048,208:    158  62  66
1720777048,208:    141  62  66
1720777048,208:    174  62  66
1720777048,208:    211  62  66
1720777048,208:    201  62  66
1720777048,208:    157  62  66
1720777048,208:    136  62  66
1720777048,208:    159  62  66
1720777048,208:    185  62  66
1720777048,208:    165  62  66
1720777048,240:    115  62  66
1720777048,240:     96  62  66
1720777048,240:    133  62  66
1720777048,240:    179  62  66
1720777048,240:    172  62  66
1720777048,240:    119  62  66
1720777048,240:     88  62  66
1720777048,240:    122  62  66
1720777048,240:    184  62  66
1720777048,240:    201  62  66
1720777048,240:    158  62  66
1720777048,240:    117  62  66
1720777048,240:    131  62  66
1720777048,240:    180  62  66
1720777048,240:    199  62  66
1720777048,240:    168  62  66
1720777048,240:    136  62  66
1720777048,240:    157  62  66
1720777048,240:    215  62  66
1720777048,240:    251  62  66
1720777048,240:    239  62  66
1720777048,240:    223  62  66
1720777048,240:    253  62  66
1720777048,271:    311  62  66
1720777048,271:    335  62  66
1720777048,271:    299  62  66
1720777048,271:    248  62  66
1720777048,271:    238  62  66
1720777048,271:    261  62  66
1720777048,271:    258  62  66
1720777048,302:    204  62  66
1720777048,302:    144  62  66
1720777048,302:    144  62  66
1720777048,302:    196  62  66
1720777048,302:    231  62  66
1720777048,302:    205  62  66
1720777048,302:    156  62  66
1720777048,302:    150  62  66
1720777048,302:    191  62  66
1720777048,302:    220  62  66
1720777048,302:    191  62  66
1720777048,302:    136  62  66
1720777048,302:    118  62  66
1720777048,302:    146  62  66
1720777048,302:    165  62  66
1720777048,302:    131  62  66
1720777048,302:     76  62  66
1720777048,302:     69  62  66
1720777048,302:    115  62  66
1720777048,302:    155  62  66
1720777048,302:    141  62  66
1720777048,302:    106  62  66
1720777048,302:    121  62  66
1720777048,334:    203  62  66
1720777048,334:    293  62  66
1720777048,334:    331  62  66
1720777048,334:    313  62  66
1720777048,334:    260  62  66
1720777048,334:    151  62  66
1720777048,334:    -73  62  66
1720777048,334:   -432  62  66
1720777048,334:   -865  62  66
1720777048,334:  -1261  62  66
1720777048,334:  -1537  62  66
1720777048,334:  -1665  62  66
1720777048,334:  -1619  62  66
1720777048,334:  -1345  62  66
1720777048,334:   -765  62  66
1720777048,365:    166  62  66
1720777048,365:   1436  62  66
1720777048,365:   2987  62  66
1720777048,365:   4720  62  66
1720777048,365:   6512  62  66
1720777048,365:   8256  62  66
1720777048,365:   9901  62  66
1720777048,365:  11438  62  66
1720777048,365:  12834  62  66
1720777048,365:  13979  62  66
1720777048,365:  14733  62  66
1720777048,365:  15010  62  66
1720777048,365:  14800  62  66
1720777048,365:  14087  62  66
1720777048,365:  12792  62  66
1720777048,396:  10858  62  63
1720777048,396:   8418  62  63
1720777048,396:   5830  62  63
1720777048,396:   3480  62  63
1720777048,396:   1532  62  63
1720777048,396:   -112  62  63
1720777048,396:  -1585  62  63
1720777048,396:  -2813  62  63
1720777048,396:  -3549  62  63
1720777048,396:  -3635  62  63
1720777048,396:  -3223  62  63
1720777048,396:  -2710  62  63
1720777048,396:  -2438  62  63
1720777048,396:  -2482  62  63
1720777048,396:  -2685  62  63
1720777048,426:  -2874  62  63
1720777048,426:  -3020  62  63
1720777048,426:  -3195  62  63
1720777048,426:  -3431  62  63
1720777048,426:  -3656  62  63
1720777048,426:  -3769  62  63
1720777048,426:  -3738  62  63
1720777048,426:  -3616  62  63
1720777048,426:  -3461  62  63
1720777048,426:  -3281  62  63
1720777048,426:  -3070  62  63
1720777048,426:  -2879  62  63
1720777048,457:  -2804  62  63
1720777048,457:  -2884  62  63
1720777048,457:  -3032  62  63
1720777048,457:  -3098  62  63
1720777048,457:  -3014  62  63
1720777048,457:  -2836  62  63
1720777048,457:  -2664  62  63
1720777048,457:  -2533  62  63
1720777048,457:  -2416  62  63
1720777048,457:  -2302  62  63
1720777048,457:  -2233  62  63
1720777048,457:  -2248  62  63
1720777048,457:  -2306  62  63
1720777048,457:  -2313  62  63
1720777048,457:  -2222  62  63
1720777048,457:  -2081  62  63
1720777048,457:  -1973  62  63
1720777048,457:  -1922  62  63
1720777048,457:  -1882  62  63
1720777048,457:  -1814  62  63
1720777048,457:  -1743  62  63
1720777048,457:  -1715  62  63
1720777048,488:  -1726  62  63
1720777048,488:  -1713  62  63
1720777048,488:  -1632  62  63
1720777048,488:  -1515  62  63
1720777048,488:  -1436  62  63
1720777048,488:  -1415  62  63
1720777048,488:  -1404  62  63
1720777048,488:  -1352  62  63
1720777048,519:  -1277  62  63
1720777048,519:  -1239  62  63
1720777048,519:  -1254  62  63
1720777048,519:  -1266  62  63
1720777048,519:  -1217  62  63
1720777048,519:  -1125  62  63
1720777048,519:  -1060  62  63
1720777048,519:  -1057  62  63
1720777048,519:  -1069  62  63
1720777048,519:  -1036  62  63
1720777048,519:   -964  62  63
1720777048,519:   -922  62  63
1720777048,519:   -942  62  63
1720777048,519:   -977  62  63
1720777048,519:   -962  62  63
1720777048,551:   -896  62  63
1720777048,551:   -845  62  63
1720777048,551:   -849  62  63
1720777048,551:   -869  62  63
1720777048,551:   -844  62  63
1720777048,551:   -777  62  63
1720777048,551:   -728  62  63
1720777048,551:   -739  62  63
1720777048,551:   -775  62  63
1720777048,551:   -771  62  63
1720777048,551:   -720  62  63
1720777048,551:   -680  62  63
1720777048,551:   -689  62  63
1720777048,551:   -721  62  63
1720777048,551:   -716  62  63
1720777048,551:   -666  62  63
1720777048,551:   -624  62  63
1720777048,551:   -629  62  63
1720777048,551:   -655  62  63
1720777048,551:   -642  62  63
1720777048,551:   -583  62  63
1720777048,551:   -527  62  63
1720777048,582:   -519  62  63
1720777048,582:   -538  62  63
1720777048,582:   -531  62  63
1720777048,582:   -481  62  63
1720777048,582:   -437  62  63
1720777048,582:   -440  62  63
1720777048,582:   -472  62  63
1720777048,582:   -475  62  63
1720777048,582:   -425  62  63
1720777048,582:   -367  62  63
1720777048,582:   -352  62  63
1720777048,582:   -373  62  63
1720777048,582:   -374  62  63
1720777048,582:   -324  62  63
1720777048,582:   -258  62  63
1720777048,613:   -227  62  63
1720777048,613:   -233  62  63
1720777048,613:   -228  62  63
1720777048,613:   -178  62  63
1720777048,613:   -109  62  63
1720777048,613:    -69  62  63
1720777048,613:    -63  62  63
1720777048,613:    -44  62  63
1720777048,613:     24  62  63
1720777048,613:    114  62  63
1720777048,613:    173  62  63
1720777048,613:    184  62  63
1720777048,613:    192  62  63
1720777048,613:    245  62  63
1720777048,613:    326  62  63
1720777048,645:    383  62  63
1720777048,645:    389  62  63
1720777048,645:    383  62  63
1720777048,645:    417  62  63
1720777048,645:    482  62  63
1720777048,645:    524  62  63
1720777048,645:    514  62  63
1720777048,645:    490  62  63
1720777048,645:    506  62  63
1720777048,645:    561  62  63
1720777048,645:    594  62  63
1720777048,645:    567  62  63
1720777048,645:    516  62  63
1720777048,645:    507  62  63
1720777048,645:    549  62  63
1720777048,677:    584  62  63
1720777048,677:    562  62  63
1720777048,677:    505  62  63
1720777048,677:    482  62  63
1720777048,677:    512  62  63
1720777048,677:    545  62  63
1720777048,677:    531  62  63
1720777048,677:    483  62  63
1720777048,677:    457  62  63
1720777048,677:    477  62  63
1720777048,677:    500  62  63
1720777048,677:    479  62  63
1720777048,677:    430  62  63
1720777048,677:    406  62  63
1720777048,677:    428  62  63
1720777048,707:    453  62  63
1720777048,707:    434  62  63
1720777048,707:    382  62  63
1720777048,707:    353  62  63
1720777048,707:    371  62  63
1720777048,707:    397  62  63
1720777048,707:    383  62  63
1720777048,707:    336  62  63
1720777048,707:    312  62  63
1720777048,707:    338  62  63
1720777048,707:    376  62  63
1720777048,707:    373  62  63
1720777048,707:    333  62  63
1720777048,707:    310  62  63
1720777048,707:    336  62  63
1720777048,737:    377  62  63
1720777048,737:    374  62  63
1720777048,737:    327  62  63
1720777048,737:    294  62  63
1720777048,737:    317  62  63
1720777048,737:    360  62  63
1720777048,737:    360  62  63
1720777048,737:    303  62  63
1720777048,737:    250  62  63
1720777048,737:    256  62  63
1720777048,737:    300  62  63
1720777048,737:    316  62  63
1720777048,737:    276  62  63
1720777048,737:    229  62  63
1720777048,737:    233  62  63
1720777048,768:    277  62  63
1720777048,768:    301  62  63
1720777048,768:    273  62  63
1720777048,768:    238  62  63
1720777048,768:    248  62  63
1720777048,768:    294  62  63
1720777048,768:    312  62  63
1720777048,768:    271  62  63
1720777048,768:    217  62  63
1720777048,768:    215  62  63
1720777048,768:    260  62  63
1720777048,768:    285  62  63
1720777048,768:    248  62  63
1720777048,768:    183  62  63
1720777048,768:    163  62  63
1720777048,800:    198  62  63
1720777048,800:    230  62  63
1720777048,800:    210  62  63
1720777048,800:    164  62  63
1720777048,800:    156  62  63
1720777048,800:    200  62  63
1720777048,800:    241  62  63
1720777048,800:    231  62  63
1720777048,800:    190  62  63
1720777048,800:    184  62  63
1720777048,800:    226  62  63
1720777048,800:    257  62  63
1720777048,800:    225  62  63
1720777048,800:    155  62  63
1720777048,800:    125  62  63
1720777048,800:    162  62  63
1720777048,800:    210  62  63
1720777048,800:    201  62  63
1720777048,800:    142  62  63
1720777048,800:    107  62  63
1720777048,800:    139  62  63
1720777048,800:    193  62  63
1720777048,800:    201  62  63
1720777048,830:    158  62  63
1720777048,830:    123  62  63
1720777048,830:    136  62  63
1720777048,830:    165  62  63
1720777048,830:    151  62  63
1720777048,830:     96  62  63
1720777048,830:     57  62  63
1720777048,830:     74  62  63
1720777048,830:    107  62  63
1720777048,830:     96  62  63
1720777048,830:     39  62  63
1720777048,830:      1  62  63
1720777048,830:     30  62  63
1720777048,830:     95  62  63
1720777048,830:    124  62  63
1720777048,861:     97  62  63
1720777048,861:     64  62  63
1720777048,861:     80  62  63
1720777048,861:    128  62  63
1720777048,861:    149  62  63
1720777048,861:    121  62  63
1720777048,861:     86  62  63
1720777048,861:     92  62  63
1720777048,861:    125  62  63
1720777048,861:    131  62  63
1720777048,861:     90  62  63
1720777048,861:     45  62  63
1720777048,861:     50  62  63
1720777048,861:     90  62  63
1720777048,861:    103  62  63
1720777048,893:     61  62  63
1720777048,893:      8  62  63
1720777048,893:      9  62  63
1720777048,893:     59  62  63
1720777048,893:     95  62  63
1720777048,893:     74  62  63
1720777048,893:     32  62  63
1720777048,893:     34  62  63
1720777048,893:     88  62  63
1720777048,893:    131  62  63
1720777048,893:    113  62  63
1720777048,893:     61  62  63
1720777048,893:     48  62  63
1720777048,893:     94  62  63
1720777048,893:    144  62  63
1720777048,924:    136  62  63
1720777048,924:     86  62  63
1720777048,924:     65  62  63
1720777048,924:    103  62  63
1720777048,924:    154  62  63
1720777048,924:    155  62  63
1720777048,924:    113  62  63
1720777048,924:     95  62  63
1720777048,924:    137  62  63
1720777048,924:    192  62  63
1720777048,924:    197  62  63
1720777048,924:    153  62  63
1720777048,924:    123  62  63
1720777048,924:    146  62  63
1720777048,924:    183  62  63
1720777048,955:    175  62  63
1720777048,955:    121  62  63
1720777048,955:     86  62  63
1720777048,955:    108  62  63
1720777048,955:    149  62  63
1720777048,955:    146  62  63
1720777048,955:    101  62  63
1720777048,955:     78  62  63
1720777048,955:    118  62  63
1720777048,955:    179  62  63
1720777048,955:    191  62  63
1720777048,955:    148  62  63
1720777048,955:    117  62  63
1720777048,955:    151  62  63
1720777048,955:    214  62  63
1720777048,986:    231  62  63
1720777048,986:    184  62  63
1720777048,986:    137  62  63
1720777048,986:    150  62  63
1720777048,986:    201  62  63
1720777048,986:    215  62  63
1720777048,986:    168  62  63
1720777048,986:    118  62  63
1720777048,986:    129  62  63
1720777048,986:    188  62  63
1720777048,986:    227  62  63
1720777048,986:    214  62  63
1720777048,986:    189  62  63
1720777048,986:    207  62  63
1720777048,986:    257  62  63
1720777048,986:    278  62  63
1720777048,986:    242  62  63
1720777048,986:    195  62  63
1720777048,986:    197  62  63
1720777048,986:    239  62  63
1720777048,986:    257  62  63
1720777048,986:    218  62  63
1720777049,018:    167  62  63
1720777049,018:    169  62  63
1720777049,018:    224  62  63
1720777049,018:    262  62  63
1720777049,018:    234  62  63
1720777049,018:    176  62  63
1720777049,018:    161  62  63
1720777049,018:    204  62  63
1720777049,018:    241  62  63
1720777049,018:    214  62  63
1720777049,018:    147  62  63
1720777049,018:    114  62  63
1720777049,018:    140  62  63
1720777049,018:    169  62  63
1720777049,018:    145  62  63
1720777049,049:     84  62  63
1720777049,049:     58  62  63
1720777049,049:     99  62  63
1720777049,049:    152  62  63
1720777049,049:    151  62  63
1720777049,049:    102  62  63
1720777049,049:     77  62  63
1720777049,049:    112  62  63
1720777049,049:    162  62  63
1720777049,049:    159  62  63
1720777049,049:    106  62  63
1720777049,049:     79  62  63
1720777049,049:    126  62  63
1720777049,049:    206  62  63
1720777049,049:    240  62  63
1720777049,081:    213  62  63
1720777049,081:    185  62  63
1720777049,081:    211  62  63
1720777049,081:    265  62  63
1720777049,081:    275  62  63
1720777049,081:    223  62  63
1720777049,081:    168  62  63
1720777049,081:    167  62  63
1720777049,081:    201  62  63
1720777049,081:    199  62  63
1720777049,081:    141  62  63
1720777049,081:     85  62  63
1720777049,081:     95  62  63
1720777049,081:    150  62  63
1720777049,081:    174  62  63
1720777049,112:    131  62  63
1720777049,112:     76  62  63
1720777049,112:     81  62  63
1720777049,112:    136  62  63
1720777049,112:    165  62  63
1720777049,112:    125  62  63
1720777049,112:     63  62  63
1720777049,112:     54  62  63
1720777049,112:    100  62  63
1720777049,112:    127  62  63
1720777049,112:     93  62  63
1720777049,112:     40  62  63
1720777049,112:     48  62  63
1720777049,112:    123  62  63
1720777049,112:    188  62  63
1720777049,144:    183  62  63
1720777049,144:    148  62  63
1720777049,144:    171  62  63
1720777049,144:    260  62  63
1720777049,144:    302  62  63
1720777049,144:    177  62  63
1720777049,144:   -111  62  63
1720777049,144:   -446  62  63
1720777049,144:   -744  62  63
1720777049,144:  -1034  62  63
1720777049,144:  -1359  62  63
1720777049,144:  -1656  62  63
1720777049,144:  -1753  62  63
1720777049,144:  -1530  62  63
1720777049,144:  -1009  62  63
1720777049,175:   -274  62  63
1720777049,175:    692  62  63
1720777049,175:   1999  62  63
1720777049,175:   3665  62  63
1720777049,175:   5495  62  63
1720777049,175:   7225  62  63
1720777049,175:   8763  62  63
1720777049,175:  10227  62  63
1720777049,175:  11703  62  63
1720777049,175:  13025  62  63
1720777049,175:  13883  62  63
1720777049,175:  14116  62  63
1720777049,175:  13838  62  63
1720777049,175:  13211  62  63
1720777049,175:  12184  62  63
1720777049,205:  10557  75  65
1720777049,205:   8317  75  65
1720777049,205:   5822  75  65
1720777049,205:   3563  75  65
1720777049,205:   1767  75  65
1720777049,205:    299  75  65
1720777049,205:  -1041  75  65
1720777049,205:  -2207  75  65
1720777049,205:  -2943  75  65
1720777049,205:  -3103  75  65
1720777049,205:  -2843  75  65
1720777049,205:  -2494  75  65
1720777049,205:  -2293  75  65
1720777049,205:  -2281  75  65
1720777049,205:  -2401  75  65
1720777049,237:  -2612  75  65
1720777049,237:  -2883  75  65
1720777049,237:  -3147  75  65
1720777049,237:  -3326  75  65
1720777049,237:  -3415  75  65
1720777049,237:  -3476  75  65
1720777049,237:  -3542  75  65
1720777049,237:  -3550  75  65
1720777049,237:  -3419  75  65
1720777049,237:  -3170  75  65
1720777049,237:  -2933  75  65
1720777049,237:  -2817  75  65
1720777049,237:  -2820  75  65
1720777049,237:  -2857  75  65
1720777049,237:  -2876  75  65
1720777049,268:  -2884  75  65
1720777049,268:  -2886  75  65
1720777049,268:  -2838  75  65
1720777049,268:  -2689  75  65
1720777049,268:  -2474  75  65
1720777049,268:  -2300  75  65
1720777049,268:  -2244  75  65
1720777049,268:  -2275  75  65
1720777049,268:  -2293  75  65
1720777049,268:  -2250  75  65
1720777049,268:  -2181  75  65
1720777049,268:  -2137  75  65
1720777049,268:  -2102  75  65
1720777049,268:  -2022  75  65
1720777049,268:  -1886  75  65
1720777049,299:  -1765  75  65
1720777049,299:  -1724  75  65
1720777049,299:  -1745  75  65
1720777049,299:  -1746  75  65
1720777049,299:  -1679  75  65
1720777049,299:  -1589  75  65
1720777049,299:  -1545  75  65
1720777049,299:  -1546  75  65
1720777049,299:  -1524  75  65
1720777049,299:  -1437  75  65
1720777049,299:  -1333  75  65
1720777049,299:  -1291  75  65
1720777049,299:  -1318  75  65
1720777049,299:  -1336  75  65
1720777049,299:  -1282  75  65
1720777049,299:  -1188  75  65
1720777049,299:  -1134  75  65
1720777049,299:  -1144  75  65
1720777049,299:  -1158  75  65
1720777049,299:  -1110  75  65
1720777049,299:  -1024  75  65
1720777049,299:   -976  75  65
1720777049,299:   -995  75  65
1720777049,331:  -1022  75  65
1720777049,331:   -992  75  65
1720777049,331:   -919  75  65
1720777049,331:   -878  75  65
1720777049,331:   -899  75  65
1720777049,331:   -933  75  65
1720777049,331:   -911  75  65
1720777049,331:   -843  75  65
1720777049,331:   -801  75  65
1720777049,331:   -821  75  65
1720777049,331:   -858  75  65
1720777049,331:   -840  75  65
1720777049,331:   -770  75  65
1720777049,331:   -719  75  65
1720777049,331:   -729  75  65
1720777049,363:   -764  75  65
1720777049,363:   -757  75  65
1720777049,363:   -700  75  65
1720777049,363:   -655  75  65
1720777049,363:   -666  75  65
1720777049,363:   -701  75  65
1720777049,363:   -691  75  65
1720777049,394:   -627  75  65
1720777049,394:   -569  75  65
1720777049,394:   -565  75  65
1720777049,394:   -591  75  65
1720777049,394:   -584  75  65
1720777049,394:   -530  75  65
1720777049,394:   -482  75  65
1720777049,394:   -487  75  65
1720777049,394:   -524  75  65
1720777049,394:   -528  75  65
1720777049,394:   -482  75  65
1720777049,394:   -434  75  65
1720777049,394:   -437  75  65
1720777049,394:   -473  75  65
1720777049,394:   -478  75  65
1720777049,394:   -426  75  65
1720777049,394:   -363  75  65
1720777049,394:   -348  75  65
1720777049,394:   -375  75  65
1720777049,394:   -376  75  65
1720777049,394:   -314  75  65
1720777049,394:   -230  75  65
1720777049,394:   -190  75  65
1720777049,426:   -198  75  65
1720777049,426:   -188  75  65
1720777049,426:   -116  75  65
1720777049,426:    -20  75  65
1720777049,426:     28  75  65
1720777049,426:     17  75  65
1720777049,426:     10  75  65
1720777049,426:     60  75  65
1720777049,426:    138  75  65
1720777049,426:    174  75  65
1720777049,426:    149  75  65
1720777049,426:    127  75  65
1720777049,457:    162  75  65
1720777049,457:    231  75  65
1720777049,457:    262  75  65
1720777049,457:    234  75  65
1720777049,457:    207  75  65
1720777049,457:    243  75  65
1720777049,457:    315  75  65
1720777049,457:    346  75  65
1720777049,457:    306  75  65
1720777049,457:    253  75  65
1720777049,457:    256  75  65
1720777049,457:    303  75  65
1720777049,457:    320  75  65
1720777049,457:    267  75  65
1720777049,457:    194  75  65
1720777049,457:    177  75  65
1720777049,457:    222  75  65
1720777049,457:    260  75  65
1720777049,457:    237  75  65
1720777049,457:    181  75  65
1720777049,457:    162  75  65
1720777049,457:    198  75  65
1720777049,457:    233  75  65
1720777049,488:    212  75  65
1720777049,488:    150  75  65
1720777049,488:    112  75  65
1720777049,488:    130  75  65
1720777049,488:    161  75  65
1720777049,488:    153  75  65
1720777049,488:    109  75  65
1720777049,488:     88  75  65
1720777049,488:    118  75  65
1720777049,488:    162  75  65
1720777049,488:    167  75  65
1720777049,488:    134  75  65
1720777049,488:    117  75  65
1720777049,488:    145  75  65
1720777049,488:    182  75  65
1720777049,520:    171  75  65
1720777049,520:    115  75  65
1720777049,520:     73  75  65
1720777049,520:     81  75  65
1720777049,520:    108  75  65
1720777049,520:     96  75  65
1720777049,520:     45  75  65
1720777049,552:     15  75  65
1720777049,552:     42  75  65
1720777049,552:     89  75  65
1720777049,552:     91  75  65
1720777049,552:     43  75  65
1720777049,552:      4  75  65
1720777049,552:     18  75  65
1720777049,552:     52  75  65
1720777049,552:     45  75  65
1720777049,552:    -14  75  65
1720777049,552:    -63  75  65
1720777049,552:    -56  75  65
1720777049,552:    -20  75  65
1720777049,552:    -19  75  65
1720777049,552:    -62  75  65
1720777049,552:    -96  75  65
1720777049,552:    -74  75  65
1720777049,552:    -30  75  65
1720777049,552:    -30  75  65
1720777049,552:    -85  75  65
1720777049,552:   -133  75  65
1720777049,552:   -117  75  65
1720777049,552:    -69  75  65
1720777049,583:    -65  75  65
1720777049,583:   -124  75  65
1720777049,583:   -184  75  65
1720777049,583:   -178  75  65
1720777049,583:   -124  75  65
1720777049,583:   -100  75  65
1720777049,583:   -142  75  65
1720777049,583:   -201  75  65
1720777049,583:   -206  75  65
1720777049,583:   -164  75  65
1720777049,583:   -139  75  65
1720777049,583:   -170  75  65
1720777049,583:   -218  75  65
1720777049,583:   -220  75  65
1720777049,583:   -178  75  65
1720777049,614:   -152  75  65
1720777049,614:   -183  75  65
1720777049,614:   -234  75  65
1720777049,614:   -241  75  65
1720777049,614:   -197  75  65
1720777049,614:   -165  75  65
1720777049,614:   -189  75  65
1720777049,614:   -240  75  65
1720777049,614:   -253  75  65
1720777049,614:   -216  75  65
1720777049,614:   -186  75  65
1720777049,614:   -213  75  65
1720777049,614:   -269  75  65
1720777049,614:   -284  75  65
1720777049,614:   -240  75  65
1720777049,646:   -194  75  65
1720777049,646:   -209  75  65
1720777049,646:   -269  75  65
1720777049,646:   -304  75  65
1720777049,646:   -278  75  65
1720777049,646:   -240  75  65
1720777049,646:   -252  75  65
1720777049,646:   -311  75  65
1720777049,646:   -353  75  65
1720777049,646:   -335  75  65
1720777049,646:   -295  75  65
1720777049,646:   -293  75  65
1720777049,646:   -336  75  65
1720777049,646:   -367  75  65
1720777049,646:   -348  75  65
1720777049,677:   -312  75  65
1720777049,677:   -312  75  65
1720777049,677:   -353  75  65
1720777049,677:   -383  75  65
1720777049,677:   -364  75  65
1720777049,677:   -322  75  65
1720777049,677:   -313  75  65
1720777049,677:   -348  75  65
1720777049,677:   -378  75  65
1720777049,677:   -363  75  65
1720777049,677:   -329  75  65
1720777049,677:   -329  75  65
1720777049,677:   -374  75  65
1720777049,677:   -413  75  65
1720777049,677:   -399  75  65
1720777049,709:   -354  75  65
1720777049,709:   -339  75  65
1720777049,709:   -377  75  65
1720777049,709:   -420  75  65
1720777049,709:   -414  75  65
1720777049,709:   -369  75  65
1720777049,709:   -349  75  65
1720777049,709:   -384  75  65
1720777049,709:   -434  75  65
1720777049,709:   -436  75  65
1720777049,709:   -389  75  65
1720777049,709:   -357  75  65
1720777049,709:   -378  75  65
1720777049,709:   -420  75  65
1720777049,709:   -417  75  65
1720777049,709:   -364  75  65
1720777049,709:   -323  75  65
1720777049,709:   -345  75  65
1720777049,709:   -400  75  65
1720777049,709:   -416  75  65
1720777049,709:   -373  75  65
1720777049,709:   -332  75  65
1720777049,740:   -348  75  65
1720777049,740:   -402  75  65
1720777049,740:   -419  75  65
1720777049,740:   -369  75  65
1720777049,740:   -311  75  65
1720777049,740:   -310  75  65
1720777049,740:   -356  75  65
1720777049,740:   -377  75  65
1720777049,787:   -333  75  65
1720777049,787:   -273  75  65
1720777049,787:   -266  75  65
1720777049,787:   -312  75  65
1720777049,787:   -345  75  65
1720777049,787:   -323  75  65
1720777049,787:   -286  75  65
1720777049,787:   -296  75  65
1720777049,787:   -354  75  65
1720777049,787:   -397  75  65
1720777049,787:   -385  75  65
1720777049,787:   -353  75  65
1720777049,787:   -359  75  65
1720777049,787:   -402  75  65
1720777049,787:   -422  75  65
1720777049,787:   -384  75  65
1720777049,787:   -327  75  65
1720777049,787:   -316  75  65
1720777049,787:   -355  75  65
1720777049,787:   -383  75  65
1720777049,787:   -361  75  65
1720777049,787:   -323  75  65
1720777049,787:   -331  75  65
1720777049,787:   -393  75  65
1720777049,787:   -446  75  65
1720777049,787:   -442  75  65
1720777049,787:   -408  75  65
1720777049,787:   -407  75  65
1720777049,787:   -457  75  65
1720777049,787:   -504  75  65
1720777049,819:   -495  75  65
1720777049,819:   -452  75  65
1720777049,819:   -440  75  65
1720777049,819:   -485  75  65
1720777049,819:   -543  75  65
1720777049,819:   -556  75  65
1720777049,819:   -530  75  65
1720777049,819:   -519  75  65
1720777049,819:   -553  75  65
1720777049,819:   -595  75  65
1720777049,819:   -591  75  65
1720777049,819:   -547  75  65
1720777049,819:   -523  75  65
1720777049,819:   -557  75  65
1720777049,819:   -616  75  65
1720777049,850:   -639  75  65
1720777049,850:   -618  75  65
1720777049,850:   -606  75  65
1720777049,850:   -637  75  65
1720777049,850:   -677  75  65
1720777049,850:   -660  75  65
1720777049,850:   -582  75  65
1720777049,850:   -506  75  65
1720777049,850:   -478  75  65
1720777049,850:   -478  75  65
1720777049,850:   -471  75  65
1720777049,850:   -497  75  65
1720777049,850:   -657  75  65
1720777049,850:   -992  75  65
1720777049,850:  -1428  75  65
1720777049,882:  -1837  75  65
1720777049,882:  -2151  75  65
1720777049,882:  -2373  75  65
1720777049,882:  -2483  75  65
1720777049,882:  -2380  75  65
1720777049,882:  -1947  75  65
1720777049,882:  -1154  75  65
1720777049,882:    -54  75  65
1720777049,882:   1309  75  65
1720777049,882:   2929  75  65
1720777049,882:   4751  75  65
1720777049,882:   6616  75  65
1720777049,882:   8352  75  65
1720777049,882:   9903  75  65
1720777049,882:  11322  75  65
1720777049,912:  12605  84  71
1720777049,912:  13591  84  71
1720777049,912:  14072  84  71
1720777049,912:  13976  84  71
1720777049,912:  13378  84  71
1720777049,912:  12326  84  71
1720777049,912:  10735  84  71
1720777049,912:   8550  84  71
1720777049,912:   5981  84  71
1720777049,912:   3471  84  71
1720777049,912:   1381  84  71
1720777049,912:   -272  84  71
1720777049,912:  -1706  84  71
1720777049,912:  -3015  84  71
1720777049,912:  -4002  84  71
1720777049,912:  -4389  84  71
1720777049,912:  -4164  84  71
1720777049,912:  -3664  84  71
1720777049,912:  -3304  84  71
1720777049,912:  -3262  84  71
1720777049,912:  -3430  84  71
1720777049,912:  -3621  84  71
1720777049,944:  -3774  84  71
1720777049,944:  -3949  84  71
1720777049,944:  -4182  84  71
1720777049,944:  -4410  84  71
1720777049,944:  -4536  84  71
1720777049,944:  -4533  84  71
1720777049,944:  -4451  84  71
1720777049,944:  -4336  84  71
1720777049,975:  -4186  84  71
1720777049,975:  -3983  84  71
1720777049,975:  -3774  84  71
1720777049,975:  -3657  84  71
1720777049,975:  -3687  84  71
1720777049,975:  -3810  84  71
1720777049,975:  -3894  84  71
1720777049,975:  -3859  84  71
1720777049,975:  -3730  84  71
1720777049,975:  -3573  84  71
1720777049,975:  -3423  84  71
1720777049,975:  -3273  84  71
1720777049,975:  -3134  84  71
1720777049,975:  -3059  84  71
1720777049,975:  -3077  84  71
1720777049,975:  -3142  84  71
1720777049,975:  -3158  84  71
1720777049,975:  -3079  84  71
1720777049,975:  -2951  84  71
1720777049,975:  -2845  84  71
1720777049,975:  -2780  84  71
1720777049,975:  -2715  84  71
1720777050,006:  -2623  84  71
1720777050,006:  -2538  84  71
1720777050,006:  -2505  84  71
1720777050,006:  -2516  84  71
1720777050,006:  -2507  84  71
1720777050,006:  -2440  84  71
1720777050,006:  -2348  84  71
1720777050,006:  -2292  84  71
1720777050,006:  -2280  84  71
1720777050,006:  -2261  84  71
1720777050,006:  -2198  84  71
1720777050,006:  -2125  84  71
1720777050,006:  -2099  84  71
1720777050,006:  -2123  84  71
1720777050,006:  -2125  84  71
1720777050,037:  -2056  84  71
1720777050,037:  -1954  84  71
1720777050,037:  -1902  84  71
1720777050,037:  -1922  84  71
1720777050,037:  -1946  84  71
1720777050,037:  -1902  84  71
1720777050,037:  -1813  84  71
1720777050,037:  -1763  84  71
1720777050,037:  -1791  84  71
1720777050,037:  -1839  84  71
1720777050,037:  -1829  84  71
1720777050,037:  -1758  84  71
1720777050,037:  -1704  84  71
1720777050,037:  -1714  84  71
1720777050,037:  -1753  84  71
1720777050,067:  -1747  84  71
1720777050,067:  -1689  84  71
1720777050,067:  -1642  84  71
1720777050,067:  -1651  84  71
1720777050,067:  -1684  84  71
1720777050,067:  -1675  84  71
1720777050,067:  -1616  84  71
1720777050,067:  -1568  84  71
1720777050,067:  -1578  84  71
1720777050,067:  -1617  84  71
1720777050,067:  -1617  84  71
1720777050,067:  -1570  84  71
1720777050,067:  -1532  84  71
1720777050,067:  -1547  84  71
1720777050,067:  -1586  84  71
1720777050,098:  -1581  84  71
1720777050,098:  -1520  84  71
1720777050,098:  -1462  84  71
1720777050,098:  -1461  84  71
1720777050,098:  -1494  84  71
1720777050,098:  -1493  84  71
1720777050,098:  -1437  84  71
1720777050,098:  -1383  84  71
1720777050,098:  -1384  84  71
1720777050,098:  -1424  84  71
1720777050,098:  -1433  84  71
1720777050,098:  -1385  84  71
1720777050,098:  -1328  84  71
1720777050,098:  -1317  84  71
1720777050,098:  -1340  84  71
1720777050,129:  -1333  84  71
1720777050,129:  -1269  84  71
1720777050,129:  -1197  84  71
1720777050,129:  -1176  84  71
1720777050,129:  -1194  84  71
1720777050,129:  -1182  84  71
1720777050,129:  -1106  84  71
1720777050,129:  -1014  84  71
1720777050,129:   -975  84  71
1720777050,129:   -987  84  71
1720777050,129:   -978  84  71
1720777050,129:   -901  84  71
1720777050,129:   -796  84  71
1720777050,129:   -738  84  71
1720777050,129:   -740  84  71
1720777050,161:   -737  84  71
1720777050,161:   -675  84  71
1720777050,161:   -585  84  71
1720777050,161:   -537  84  71
1720777050,161:   -551  84  71
1720777050,161:   -568  84  71
1720777050,161:   -532  84  71
1720777050,161:   -464  84  71
1720777050,161:   -431  84  71
1720777050,161:   -460  84  71
1720777050,161:   -496  84  71
1720777050,161:   -478  84  71
1720777050,161:   -417  84  71
1720777050,161:   -385  84  71
1720777050,161:   -418  84  71
1720777050,193:   -471  84  71
1720777050,193:   -479  84  71
1720777050,193:   -438  84  71
1720777050,193:   -414  84  71
1720777050,193:   -447  84  71
1720777050,193:   -505  84  71
1720777050,193:   -519  84  71
1720777050,193:   -482  84  71
1720777050,193:   -454  84  71
1720777050,193:   -481  84  71
1720777050,193:   -535  84  71
1720777050,193:   -551  84  71
1720777050,193:   -516  84  71
1720777050,193:   -487  84  71
1720777050,193:   -515  84  71
1720777050,193:   -572  84  71
1720777050,193:   -590  84  71
1720777050,193:   -548  84  71
1720777050,193:   -502  84  71
1720777050,193:   -507  84  71
1720777050,193:   -547  84  71
1720777050,193:   -559  84  71
1720777050,193:   -521  84  71
1720777050,224:   -480  84  71
1720777050,224:   -487  84  71
1720777050,224:   -530  84  71
1720777050,224:   -548  84  71
1720777050,224:   -514  84  71
1720777050,224:   -473  84  71
1720777050,224:   -476  84  71
1720777050,224:   -516  84  71
1720777050,224:   -533  84  71
1720777050,224:   -498  84  71
1720777050,224:   -448  84  71
1720777050,224:   -437  84  71
1720777050,224:   -468  84  71
1720777050,224:   -486  84  71
1720777050,224:   -459  84  71
1720777050,256:   -419  84  71
1720777050,256:   -418  84  71
1720777050,256:   -461  84  71
1720777050,256:   -494  84  71
1720777050,256:   -479  84  71
1720777050,256:   -442  84  71
1720777050,256:   -435  84  71
1720777050,256:   -468  84  71
1720777050,256:   -494  84  71
1720777050,256:   -470  84  71
1720777050,256:   -415  84  71
1720777050,256:   -384  84  71
1720777050,256:   -395  84  71
1720777050,256:   -408  84  71
1720777050,256:   -384  84  71
1720777050,287:   -338  84  71
1720777050,287:   -319  84  71
1720777050,287:   -344  84  71
1720777050,287:   -370  84  71
1720777050,287:   -350  84  71
1720777050,287:   -298  84  71
1720777050,287:   -270  84  71
1720777050,287:   -294  84  71
1720777050,287:   -330  84  71
1720777050,287:   -324  84  71
1720777050,287:   -277  84  71
1720777050,287:   -245  84  71
1720777050,287:   -265  84  71
1720777050,287:   -304  84  71
1720777050,287:   -303  84  71
1720777050,318:   -254  84  71
1720777050,318:   -212  84  71
1720777050,318:   -221  84  71
1720777050,318:   -260  84  71
1720777050,318:   -264  84  71
1720777050,318:   -217  84  71
1720777050,318:   -175  84  71
1720777050,318:   -188  84  71
1720777050,318:   -243  84  71
1720777050,318:   -269  84  71
1720777050,318:   -238  84  71
1720777050,318:   -190  84  71
1720777050,318:   -185  84  71
1720777050,318:   -223  84  71
1720777050,318:   -244  84  71
1720777050,349:   -215  84  71
1720777050,349:   -166  84  71
1720777050,349:   -154  84  71
1720777050,349:   -180  84  71
1720777050,349:   -194  84  71
1720777050,349:   -165  84  71
1720777050,349:   -124  84  71
1720777050,349:   -123  84  71
1720777050,349:   -164  84  71
1720777050,349:   -194  84  71
1720777050,349:   -172  84  71
1720777050,349:   -130  84  71
1720777050,349:   -127  84  71
1720777050,349:   -172  84  71
1720777050,349:   -210  84  71
1720777050,381:   -190  84  71
1720777050,381:   -135  84  71
1720777050,381:   -109  84  71
1720777050,381:   -136  84  71
1720777050,381:   -168  84  71
1720777050,381:   -153  84  71
1720777050,381:   -102  84  71
1720777050,381:    -73  84  71
1720777050,381:    -97  84  71
1720777050,381:   -133  84  71
1720777050,381:   -130  84  71
1720777050,381:    -91  84  71
1720777050,381:    -73  84  71
1720777050,381:   -104  84  71
1720777050,381:   -149  84  71
1720777050,381:   -153  84  71
1720777050,381:   -116  84  71
1720777050,381:    -94  84  71
1720777050,381:   -121  84  71
1720777050,381:   -161  84  71
1720777050,381:   -154  84  71
1720777050,381:   -100  84  71
1720777050,411:    -56  84  71
1720777050,411:    -67  84  71
1720777050,411:   -105  84  71
1720777050,411:   -110  84  71
1720777050,411:    -74  84  71
1720777050,411:    -49  84  71
1720777050,411:    -74  84  71
1720777050,411:   -119  84  71
1720777050,443:   -123  84  71
1720777050,443:    -75  84  71
1720777050,443:    -30  84  71
1720777050,443:    -36  84  71
1720777050,443:    -71  84  71
1720777050,443:    -74  84  71
1720777050,443:    -26  84  71
1720777050,443:     22  84  71
1720777050,443:     19  84  71
1720777050,443:    -17  84  71
1720777050,443:    -26  84  71
1720777050,443:     13  84  71
1720777050,443:     55  84  71
1720777050,443:     52  84  71
1720777050,443:     18  84  71
1720777050,443:     12  84  71
1720777050,443:     55  84  71
1720777050,443:    101  84  71
1720777050,443:     98  84  71
1720777050,474:     60  84  71
1720777050,474:     49  84  71
1720777050,474:     95  84  71
1720777050,474:    152  84  71
1720777050,474:    161  84  71
1720777050,474:    125  84  71
1720777050,474:    107  84  71
1720777050,474:    143  84  71
1720777050,474:    191  84  71
1720777050,474:    191  84  71
1720777050,474:    144  84  71
1720777050,474:    117  84  71
1720777050,474:    156  84  71
1720777050,474:    224  84  71
1720777050,474:    249  84  71
1720777050,505:    217  84  71
1720777050,505:    193  84  71
1720777050,505:    232  84  71
1720777050,505:    309  84  71
1720777050,505:    348  84  71
1720777050,505:    322  84  71
1720777050,505:    285  84  71
1720777050,505:    299  84  71
1720777050,505:    353  84  71
1720777050,505:    381  84  71
1720777050,505:    352  84  71
1720777050,505:    313  84  71
1720777050,505:    323  84  71
1720777050,505:    374  84  71
1720777050,505:    401  84  71
1720777050,536:    373  84  71
1720777050,536:    336  84  71
1720777050,536:    352  84  71
1720777050,536:    418  84  71
1720777050,536:    465  84  71
1720777050,536:    450  84  71
1720777050,536:    407  84  71
1720777050,536:    403  84  71
1720777050,536:    447  84  71
1720777050,536:    483  84  71
1720777050,536:    466  84  71
1720777050,536:    422  84  71
1720777050,536:    412  84  71
1720777050,536:    455  84  71
1720777050,536:    501  84  71
1720777050,568:    505  84  71
1720777050,568:    480  84  71
1720777050,568:    479  84  71
1720777050,568:    515  84  71
1720777050,568:    548  84  71
1720777050,568:    532  84  71
1720777050,568:    484  84  71
1720777050,568:    458  84  71
1720777050,568:    475  84  71
1720777050,568:    498  84  71
1720777050,568:    479  84  71
1720777050,568:    428  84  71
1720777050,568:    402  84  71
1720777050,568:    428  84  71
1720777050,568:    470  84  71
1720777050,599:    475  84  71
1720777050,599:    440  84  71
1720777050,599:    417  84  71
1720777050,599:    440  84  71
1720777050,599:    478  84  71
1720777050,599:    476  84  71
1720777050,599:    429  84  71
1720777050,599:    394  84  71
1720777050,599:    414  84  71
1720777050,599:    458  84  71
1720777050,599:    459  84  71
1720777050,599:    405  84  71
1720777050,599:    352  84  71
1720777050,599:    361  84  71
1720777050,599:    414  84  71
1720777050,630:    440  84  71
1720777050,630:    412  84  71
1720777050,630:    380  84  71
1720777050,630:    405  84  71
1720777050,630:    475  84  71
1720777050,630:    524  84  71
1720777050,630:    526  84  71
1720777050,630:    525  84  71
1720777050,630:    555  84  71
1720777050,630:    550  84  71
1720777050,630:    397  84  71
1720777050,630:     65  84  71
1720777050,630:   -351  84  71
1720777050,630:   -731  84  71
1720777050,630:  -1037  84  71
1720777050,630:  -1287  84  71
1720777050,630:  -1442  84  71
1720777050,630:  -1366  84  71
1720777050,630:   -933  84  71
1720777050,630:   -139  84  71
1720777050,630:    934  84  71
1720777050,630:   2257  84  71
1720777050,630:   3863  84  71
1720777050,661:   5720  84  71
1720777050,661:   7641  84  71
1720777050,661:   9405  84  71
1720777050,661:  10951  84  71
1720777050,661:  12378  84  71
1720777050,661:  13732  84  71
1720777050,661:  14846  84  71
1720777050,661:  15462  84  71
1720777050,661:  15478  84  71
1720777050,661:  14991  84  71
1720777050,661:  14075  84  71
1720777050,661:  12624  84  71
1720777050,661:  10515  84  71
1720777050,661:   7909  84  71
1720777050,661:   5280  84  71
1720777050,693:   3058  78  75
1720777050,693:   1291  78  75
1720777050,693:   -261  78  75
1720777050,693:  -1727  78  75
1720777050,693:  -2893  78  75
1720777050,693:  -3425  78  75
1720777050,693:  -3271  78  75
1720777050,724:  -2774  78  75
1720777050,724:  -2377  78  75
1720777050,724:  -2279  78  75
1720777050,724:  -2382  78  75
1720777050,724:  -2522  78  75
1720777050,724:  -2654  78  75
1720777050,724:  -2834  78  75
1720777050,724:  -3071  78  75
1720777050,724:  -3289  78  75
1720777050,724:  -3410  78  75
1720777050,724:  -3437  78  75
1720777050,724:  -3412  78  75
1720777050,724:  -3336  78  75
1720777050,724:  -3179  78  75
1720777050,724:  -2941  78  75
1720777050,755:  -2710  78  75
1720777050,755:  -2596  78  75
1720777050,755:  -2634  78  75
1720777050,755:  -2746  78  75
1720777050,755:  -2815  78  75
1720777050,755:  -2788  78  75
1720777050,755:  -2687  78  75
1720777050,755:  -2551  78  75
1720777050,755:  -2393  78  75
1720777050,755:  -2219  78  75
1720777050,755:  -2069  78  75
1720777050,755:  -1999  78  75
1720777050,755:  -2018  78  75
1720777050,755:  -2067  78  75
1720777050,755:  -2071  78  75
1720777050,755:  -2007  78  75
1720777050,755:  -1910  78  75
1720777050,755:  -1819  78  75
1720777050,755:  -1733  78  75
1720777050,755:  -1632  78  75
1720777050,755:  -1528  78  75
1720777050,755:  -1464  78  75
1720777050,755:  -1456  78  75
1720777050,785:  -1467  78  75
1720777050,785:  -1441  78  75
1720777050,785:  -1367  78  75
1720777050,785:  -1287  78  75
1720777050,785:  -1238  78  75
1720777050,785:  -1209  78  75
1720777050,785:  -1157  78  75
1720777050,785:  -1073  78  75
1720777050,785:   -996  78  75
1720777050,785:   -964  78  75
1720777050,785:   -961  78  75
1720777050,785:   -939  78  75
1720777050,785:   -878  78  75
1720777050,785:   -815  78  75
1720777050,785:   -791  78  75
1720777050,816:   -798  78  75
1720777050,816:   -787  78  75
1720777050,816:   -735  78  75
1720777050,816:   -675  78  75
1720777050,816:   -647  78  75
1720777050,816:   -648  78  75
1720777050,816:   -634  78  75
1720777050,816:   -582  78  75
1720777050,816:   -527  78  75
1720777050,816:   -513  78  75
1720777050,816:   -533  78  75
1720777050,816:   -536  78  75
1720777050,816:   -490  78  75
1720777050,816:   -430  78  75
1720777050,816:   -411  78  75
1720777050,847:   -437  78  75
1720777050,847:   -454  78  75
1720777050,847:   -423  78  75
1720777050,847:   -370  78  75
1720777050,847:   -345  78  75
1720777050,847:   -359  78  75
1720777050,847:   -368  78  75
1720777050,847:   -332  78  75
1720777050,847:   -276  78  75
1720777050,847:   -251  78  75
1720777050,847:   -268  78  75
1720777050,847:   -279  78  75
1720777050,847:   -241  78  75
1720777050,847:   -184  78  75
1720777050,847:   -178  78  75
1720777050,878:   -240  78  75
1720777050,878:   -310  78  75
1720777050,878:   -317  78  75
1720777050,878:   -265  78  75
1720777050,878:   -230  78  75
1720777050,878:   -263  78  75
1720777050,878:   -330  78  75
1720777050,878:   -353  78  75
1720777050,878:   -308  78  75
1720777050,878:   -248  78  75
1720777050,878:   -228  78  75
1720777050,878:   -245  78  75
1720777050,878:   -245  78  75
1720777050,878:   -203  78  75
1720777050,878:   -150  78  75
1720777050,878:   -123  78  75
1720777050,878:   -113  78  75
1720777050,878:    -78  78  75
1720777050,878:     -9  78  75
1720777050,878:     60  78  75
1720777050,878:     97  78  75
1720777050,878:    120  78  75
1720777050,910:    179  78  75
1720777050,910:    281  78  75
1720777050,910:    381  78  75
1720777050,910:    433  78  75
1720777050,910:    448  78  75
1720777050,910:    482  78  75
1720777050,910:    557  78  75
1720777050,910:    634  78  75
1720777050,941:    671  78  75
1720777050,941:    676  78  75
1720777050,941:    701  78  75
1720777050,941:    771  78  75
1720777050,941:    844  78  75
1720777050,941:    872  78  75
1720777050,941:    858  78  75
1720777050,941:    854  78  75
1720777050,941:    887  78  75
1720777050,941:    924  78  75
1720777050,941:    914  78  75
1720777050,941:    861  78  75
1720777050,941:    822  78  75
1720777050,941:    837  78  75
1720777050,941:    874  78  75
1720777050,973:    879  78  75
1720777050,973:    844  78  75
1720777050,973:    815  78  75
1720777050,973:    835  78  75
1720777050,973:    878  78  75
1720777050,973:    891  78  75
1720777050,973:    859  78  75
1720777050,973:    826  78  75
1720777050,973:    836  78  75
1720777050,973:    867  78  75
1720777050,973:    868  78  75
1720777050,973:    822  78  75
1720777050,973:    776  78  75
1720777050,973:    780  78  75
1720777050,973:    819  78  75
1720777050,973:    832  78  75
1720777050,973:    795  78  75
1720777050,973:    750  78  75
1720777050,973:    753  78  75
1720777050,973:    800  78  75
1720777050,973:    830  78  75
1720777050,973:    809  78  75
1720777051,004:    767  78  75
1720777051,004:    761  78  75
1720777051,004:    797  78  75
1720777051,004:    826  78  75
1720777051,004:    806  78  75
1720777051,004:    764  78  75
1720777051,004:    753  78  75
1720777051,004:    786  78  75
1720777051,004:    817  78  75
1720777051,004:    806  78  75
1720777051,004:    771  78  75
1720777051,004:    761  78  75
1720777051,004:    791  78  75
1720777051,004:    816  78  75
1720777051,004:    796  78  75
1720777051,036:    748  78  75
1720777051,036:    724  78  75
1720777051,036:    741  78  75
1720777051,036:    758  78  75
1720777051,036:    734  78  75
1720777051,036:    685  78  75
1720777051,036:    666  78  75
1720777051,036:    697  78  75
1720777051,036:    731  78  75
1720777051,036:    723  78  75
1720777051,036:    684  78  75
1720777051,036:    671  78  75
1720777051,036:    708  78  75
1720777051,036:    750  78  75
1720777051,036:    740  78  75
1720777051,068:    685  78  75
1720777051,068:    649  78  75
1720777051,068:    667  78  75
1720777051,068:    702  78  75
1720777051,068:    697  78  75
1720777051,068:    649  78  75
1720777051,068:    614  78  75
1720777051,068:    633  78  75
1720777051,068:    677  78  75
1720777051,068:    686  78  75
1720777051,068:    650  78  75
1720777051,068:    617  78  75
1720777051,068:    629  78  75
1720777051,068:    659  78  75
1720777051,068:    652  78  75
1720777051,068:    599  78  75
1720777051,068:    553  78  75
1720777051,068:    563  78  75
1720777051,068:    608  78  75
1720777051,068:    625  78  75
1720777051,068:    593  78  75
1720777051,068:    557  78  75
1720777051,068:    574  78  75
1720777051,098:    627  78  75
1720777051,098:    653  78  75
1720777051,098:    618  78  75
1720777051,098:    566  78  75
1720777051,098:    561  78  75
1720777051,098:    605  78  75
1720777051,098:    638  78  75
1720777051,128:    616  78  75
1720777051,128:    573  78  75
1720777051,128:    574  78  75
1720777051,128:    626  78  75
1720777051,128:    668  78  75
1720777051,128:    652  78  75
1720777051,128:    605  78  75
1720777051,128:    595  78  75
1720777051,160:    639  78  75
1720777051,160:    676  78  75
1720777051,160:    654  78  75
1720777051,160:    597  78  75
1720777051,160:    580  78  75
1720777051,160:    628  78  75
1720777051,160:    681  78  75
1720777051,160:    674  78  75
1720777051,160:    619  78  75
1720777051,160:    590  78  75
1720777051,160:    626  78  75
1720777051,160:    677  78  75
1720777051,160:    674  78  75
1720777051,160:    620  78  75
1720777051,160:    583  78  75
1720777051,160:    603  78  75
1720777051,160:    640  78  75
1720777051,160:    630  78  75
1720777051,160:    572  78  75
1720777051,160:    533  78  75
1720777051,160:    558  78  75
1720777051,160:    607  78  75
1720777051,191:    612  78  75
1720777051,191:    563  78  75
1720777051,191:    527  78  75
1720777051,191:    552  78  75
1720777051,191:    602  78  75
1720777051,191:    605  78  75
1720777051,191:    549  78  75
1720777051,191:    498  78  75
1720777051,191:    512  78  75
1720777051,191:    564  78  75
1720777051,191:    578  78  75
1720777051,191:    531  78  75
1720777051,191:    481  78  75
1720777051,191:    495  78  75
1720777051,191:    556  78  75
1720777051,191:    590  78  75
1720777051,191:    563  78  75
1720777051,191:    521  78  75
1720777051,191:    527  78  75
1720777051,191:    573  78  75
1720777051,191:    595  78  75
1720777051,191:    558  78  75
1720777051,191:    508  78  75
1720777051,223:    504  78  75
1720777051,223:    541  78  75
1720777051,223:    554  78  75
1720777051,223:    513  78  75
1720777051,223:    464  78  75
1720777051,223:    472  78  75
1720777051,223:    530  78  75
1720777051,223:    570  78  75
1720777051,223:    551  78  75
1720777051,223:    512  78  75
1720777051,223:    519  78  75
1720777051,223:    571  78  75
1720777051,223:    604  78  75
1720777051,223:    574  78  75
1720777051,223:    518  78  75
1720777051,254:    505  78  75
1720777051,254:    541  78  75
1720777051,254:    566  78  75
1720777051,254:    534  78  75
1720777051,254:    481  78  75
1720777051,254:    479  78  75
1720777051,254:    533  78  75
1720777051,254:    575  78  75
1720777051,254:    551  78  75
1720777051,254:    492  78  75
1720777051,254:    477  78  75
1720777051,254:    527  78  75
1720777051,254:    582  78  75
1720777051,254:    575  78  75
1720777051,254:    523  78  75
1720777051,285:    496  78  75
1720777051,285:    528  78  75
1720777051,285:    566  78  75
1720777051,285:    549  78  75
1720777051,285:    491  78  75
1720777051,285:    462  78  75
1720777051,285:    495  78  75
1720777051,285:    540  78  75
1720777051,285:    532  78  75
1720777051,285:    476  78  75
1720777051,285:    441  78  75
1720777051,285:    470  78  75
1720777051,285:    520  78  75
1720777051,285:    521  78  75
1720777051,285:    467  78  75
1720777051,316:    424  78  75
1720777051,316:    443  78  75
1720777051,316:    493  78  75
1720777051,316:    508  78  75
1720777051,316:    470  78  75
1720777051,316:    431  78  75
1720777051,316:    439  78  75
1720777051,316:    475  78  75
1720777051,316:    482  78  75
1720777051,316:    445  78  75
1720777051,316:    411  78  75
1720777051,316:    427  78  75
1720777051,316:    471  78  75
1720777051,316:    485  78  75
1720777051,316:    452  78  75
1720777051,346:    418  78  75
1720777051,346:    429  78  75
1720777051,346:    464  78  75
1720777051,346:    462  78  75
1720777051,346:    406  78  75
1720777051,346:    352  78  75
1720777051,346:    361  78  75
1720777051,376:    418  78  75
1720777051,376:    445  78  75
1720777051,376:    406  78  75
1720777051,376:    350  78  75
1720777051,376:    350  78  75
1720777051,376:    408  78  75
1720777051,376:    449  78  75
1720777051,376:    420  78  75
1720777051,376:    361  78  75
1720777051,376:    353  78  75
1720777051,376:    415  78  75
1720777051,376:    476  78  75
1720777051,376:    470  78  75
1720777051,376:    418  78  75
1720777051,376:    400  78  75
1720777051,376:    449  78  75
1720777051,376:    506  78  75
1720777051,376:    500  78  75
1720777051,376:    438  78  75
1720777051,376:    398  78  75
1720777051,376:    420  78  75
1720777051,376:    458  78  75
1720777051,376:    444  78  75
1720777051,408:    380  78  75
1720777051,408:    337  78  75
1720777051,408:    361  78  75
1720777051,408:    407  78  75
1720777051,408:    407  78  75
1720777051,408:    352  78  75
1720777051,408:    312  78  75
1720777051,408:    337  78  75
1720777051,408:    388  78  75
1720777051,408:    391  78  75
1720777051,408:    334  78  75
1720777051,408:    285  78  75
1720777051,408:    302  78  75
1720777051,408:    353  78  75
1720777051,408:    362  78  75
1720777051,439:    305  78  75
1720777051,439:    250  78  75
1720777051,439:    260  78  75
1720777051,439:    312  78  75
1720777051,439:    331  78  75
1720777051,439:    293  78  75
1720777051,439:    262  78  75
1720777051,439:    302  78  75
1720777051,439:    388  78  75
1720777051,439:    445  78  75
1720777051,439:    442  78  75
1720777051,439:    423  78  75
1720777051,439:    409  78  75
1720777051,439:    331  78  75
1720777051,439:     97  78  75
1720777051,439:   -298  78  75
1720777051,439:   -747  78  75
1720777051,439:  -1131  78  75
1720777051,439:  -1409  78  75
1720777051,439:  -1580  78  75
1720777051,470:  -1591  78  75
1720777051,470:  -1333  78  75
1720777051,470:   -728  78  75
1720777051,470:    208  78  75
1720777051,470:   1427  78  75
1720777051,470:   2918  78  75
1720777051,470:   4662  78  75
1720777051,470:   6547  78  75
1720777051,470:   8380  78  75
1720777051,470:  10036  78  75
1720777051,470:  11539  78  75
1720777051,470:  12946  78  75
1720777051,470:  14179  78  75
1720777051,470:  15018  78  75
1720777051,470:  15288  78  75
1720777051,502:  14987  74  78
1720777051,502:  14187  74  78
1720777051,502:  12868  74  78
1720777051,502:  10946  74  78
1720777051,502:   8496  74  78
1720777051,502:   5875  74  78
1720777051,502:   3513  74  78
1720777051,502:   1598  74  78
1720777051,502:      3  74  78
1720777051,502:  -1439  74  78
1720777051,502:  -2656  74  78
1720777051,502:  -3374  74  78
1720777051,502:  -3436  74  78
1720777051,502:  -3028  74  78
1720777051,502:  -2568  74  78
1720777051,534:  -2376  74  78
1720777051,534:  -2481  74  78
1720777051,534:  -2706  74  78
1720777051,534:  -2897  74  78
1720777051,534:  -3053  74  78
1720777051,534:  -3242  74  78
1720777051,534:  -3472  74  78
1720777051,534:  -3663  74  78
1720777051,534:  -3738  74  78
1720777051,534:  -3697  74  78
1720777051,534:  -3588  74  78
1720777051,534:  -3446  74  78
1720777051,534:  -3261  74  78
1720777051,534:  -3042  74  78
1720777051,534:  -2867  74  78
1720777051,534:  -2832  74  78
1720777051,534:  -2940  74  78
1720777051,534:  -3072  74  78
1720777051,534:  -3092  74  78
1720777051,534:  -2980  74  78
1720777051,534:  -2820  74  78
1720777051,534:  -2688  74  78
1720777051,566:  -2571  74  78
1720777051,566:  -2423  74  78
1720777051,566:  -2270  74  78
1720777051,566:  -2205  74  78
1720777051,566:  -2269  74  78
1720777051,566:  -2385  74  78
1720777051,566:  -2418  74  78
1720777051,566:  -2328  74  78
1720777051,596:  -2194  74  78
1720777051,596:  -2113  74  78
1720777051,596:  -2089  74  78
1720777051,596:  -2050  74  78
1720777051,596:  -1961  74  78
1720777051,596:  -1870  74  78
1720777051,596:  -1828  74  78
1720777051,596:  -1813  74  78
1720777051,596:  -1753  74  78
1720777051,596:  -1632  74  78
1720777051,596:  -1518  74  78
1720777051,596:  -1479  74  78
1720777051,596:  -1492  74  78
1720777051,596:  -1473  74  78
1720777051,596:  -1387  74  78
1720777051,627:  -1293  74  78
1720777051,627:  -1262  74  78
1720777051,627:  -1283  74  78
1720777051,627:  -1275  74  78
1720777051,627:  -1197  74  78
1720777051,627:  -1102  74  78
1720777051,627:  -1062  74  78
1720777051,627:  -1080  74  78
1720777051,627:  -1084  74  78
1720777051,627:  -1033  74  78
1720777051,627:   -969  74  78
1720777051,627:   -956  74  78
1720777051,627:   -995  74  78
1720777051,627:  -1015  74  78
1720777051,627:   -967  74  78
1720777051,627:   -893  74  78
1720777051,627:   -862  74  78
1720777051,627:   -885  74  78
1720777051,627:   -895  74  78
1720777051,627:   -843  74  78
1720777051,627:   -768  74  78
1720777051,627:   -741  74  78
1720777051,658:   -774  74  78
1720777051,658:   -801  74  78
1720777051,658:   -763  74  78
1720777051,658:   -691  74  78
1720777051,658:   -662  74  78
1720777051,658:   -700  74  78
1720777051,658:   -741  74  78
1720777051,658:   -721  74  78
1720777051,658:   -658  74  78
1720777051,658:   -628  74  78
1720777051,658:   -661  74  78
1720777051,658:   -698  74  78
1720777051,658:   -674  74  78
1720777051,658:   -601  74  78
1720777051,658:   -555  74  78
1720777051,689:   -573  74  78
1720777051,689:   -602  74  78
1720777051,689:   -574  74  78
1720777051,689:   -495  74  78
1720777051,689:   -441  74  78
1720777051,689:   -457  74  78
1720777051,689:   -496  74  78
1720777051,689:   -484  74  78
1720777051,689:   -419  74  78
1720777051,689:   -373  74  78
1720777051,689:   -393  74  78
1720777051,689:   -438  74  78
1720777051,689:   -427  74  78
1720777051,689:   -349  74  78
1720777051,689:   -279  74  78
1720777051,722:   -274  74  78
1720777051,722:   -304  74  78
1720777051,722:   -284  74  78
1720777051,722:   -191  74  78
1720777051,722:    -88  74  78
1720777051,722:    -48  74  78
1720777051,722:    -54  74  78
1720777051,722:    -29  74  78
1720777051,752:     63  74  78
1720777051,752:    168  74  78
1720777051,752:    215  74  78
1720777051,752:    208  74  78
1720777051,752:    222  74  78
1720777051,752:    297  74  78
1720777051,752:    391  74  78
1720777051,752:    435  74  78
1720777051,752:    427  74  78
1720777051,752:    432  74  78
1720777051,752:    493  74  78
1720777051,752:    570  74  78
1720777051,752:    596  74  78
1720777051,752:    568  74  78
1720777051,752:    547  74  78
1720777051,752:    577  74  78
1720777051,752:    624  74  78
1720777051,752:    623  74  78
1720777051,752:    569  74  78
1720777051,752:    527  74  78
1720777051,752:    545  74  78
1720777051,752:    588  74  78
1720777051,782:    584  74  78
1720777051,782:    525  74  78
1720777051,782:    477  74  78
1720777051,782:    494  74  78
1720777051,782:    542  74  78
1720777051,782:    544  74  78
1720777051,782:    478  74  78
1720777051,782:    413  74  78
1720777051,782:    417  74  78
1720777051,782:    469  74  78
1720777051,782:    489  74  78
1720777051,782:    440  74  78
1720777051,782:    378  74  78
1720777051,782:    373  74  78
1720777051,782:    417  74  78
1720777051,815:    435  74  78
1720777051,815:    386  74  78
1720777051,815:    319  74  78
1720777051,815:    309  74  78
1720777051,815:    353  74  78
1720777051,815:    378  74  78
1720777051,815:    336  74  78
1720777051,815:    270  74  78
1720777051,815:    258  74  78
1720777051,815:    304  74  78
1720777051,815:    333  74  78
1720777051,815:    292  74  78
1720777051,815:    219  74  78
1720777051,815:    195  74  78
1720777051,815:    237  74  78
1720777051,844:    275  74  78
1720777051,844:    247  74  78
1720777051,844:    180  74  78
1720777051,844:    157  74  78
1720777051,844:    201  74  78
1720777051,844:    246  74  78
1720777051,844:    224  74  78
1720777051,844:    151  74  78
1720777051,844:    110  74  78
1720777051,844:    137  74  78
1720777051,844:    175  74  78
1720777051,844:    158  74  78
1720777051,844:     95  74  78
1720777051,844:     63  74  78
1720777051,844:     98  74  78
1720777051,844:    146  74  78
1720777051,844:    133  74  78
1720777051,844:     64  74  78
1720777051,844:     23  74  78
1720777051,844:     57  74  78
1720777051,844:    117  74  78
1720777051,844:    118  74  78
1720777051,844:     51  74  78
1720777051,876:     -6  74  78
1720777051,876:     11  74  78
1720777051,876:     68  74  78
1720777051,876:     84  74  78
1720777051,876:     40  74  78
1720777051,876:      0  74  78
1720777051,876:     23  74  78
1720777051,876:     79  74  78
1720777051,876:     91  74  78
1720777051,876:     40  74  78
1720777051,876:     -9  74  78
1720777051,876:      8  74  78
1720777051,876:     60  74  78
1720777051,876:     67  74  78
1720777051,876:      2  74  78
1720777051,907:    -66  74  78
1720777051,907:    -63  74  78
1720777051,907:     -5  74  78
1720777051,907:     25  74  78
1720777051,907:    -14  74  78
1720777051,907:    -70  74  78
1720777051,907:    -71  74  78
1720777051,939:    -25  74  78
1720777051,939:     -5  74  78
1720777051,939:    -49  74  78
1720777051,939:   -106  74  78
1720777051,939:   -103  74  78
1720777051,939:    -46  74  78
1720777051,939:    -11  74  78
1720777051,939:    -45  74  78
1720777051,939:   -101  74  78
1720777051,939:   -107  74  78
1720777051,939:    -55  74  78
1720777051,939:    -17  74  78
1720777051,939:    -44  74  78
1720777051,939:   -100  74  78
1720777051,939:   -110  74  78
1720777051,970:    -60  74  78
1720777051,970:    -15  74  78
1720777051,970:    -36  74  78
1720777051,970:    -99  74  78
1720777051,970:   -127  74  78
1720777051,970:    -89  74  78
1720777051,970:    -44  74  78
1720777051,970:    -57  74  78
1720777051,970:   -124  74  78
1720777051,970:   -170  74  78
1720777051,970:   -153  74  78
1720777051,970:   -116  74  78
1720777051,970:   -126  74  78
1720777051,970:   -186  74  78
1720777051,970:   -227  74  78
1720777051,970:   -203  74  78
1720777051,970:   -156  74  78
1720777051,970:   -157  74  78
1720777051,970:   -212  74  78
1720777051,970:   -245  74  78
1720777051,970:   -201  74  78
1720777051,970:   -125  74  78
1720777051,970:   -102  74  78
1720777052,002:   -150  74  78
1720777052,002:   -196  74  78
1720777052,002:   -172  74  78
1720777052,002:   -108  74  78
1720777052,002:    -88  74  78
1720777052,002:   -140  74  78
1720777052,002:   -194  74  78
1720777052,002:   -181  74  78
1720777052,002:   -125  74  78
1720777052,002:   -110  74  78
1720777052,002:   -162  74  78
1720777052,002:   -219  74  78
1720777052,002:   -206  74  78
1720777052,002:   -143  74  78
1720777052,002:   -114  74  78
1720777052,033:   -158  74  78
1720777052,033:   -217  74  78
1720777052,033:   -212  74  78
1720777052,033:   -150  74  78
1720777052,033:   -109  74  78
1720777052,033:   -136  74  78
1720777052,033:   -187  74  78
1720777052,033:   -192  74  78
1720777052,033:   -148  74  78
1720777052,033:   -123  74  78
1720777052,033:   -158  74  78
1720777052,033:   -211  74  78
1720777052,033:   -208  74  78
1720777052,033:   -148  74  78
1720777052,033:   -103  74  78
1720777052,064:   -125  74  78
1720777052,064:   -176  74  78
1720777052,064:   -178  74  78
1720777052,064:   -121  74  78
1720777052,064:    -74  74  78
1720777052,064:    -98  74  78
1720777052,064:   -165  74  78
1720777052,064:   -191  74  78
1720777052,064:   -151  74  78
1720777052,064:   -107  74  78
1720777052,064:   -128  74  78
1720777052,064:   -193  74  78
1720777052,064:   -221  74  78
1720777052,064:   -178  74  78
1720777052,064:   -123  74  78
1720777052,095:   -129  74  78
1720777052,095:   -187  74  78
1720777052,095:   -215  74  78
1720777052,095:   -173  74  78
1720777052,095:   -114  74  78
1720777052,095:   -118  74  78
1720777052,095:   -184  74  78
1720777052,095:   -228  74  78
1720777052,095:   -198  74  78
1720777052,095:   -140  74  78
1720777052,095:   -138  74  78
1720777052,095:   -203  74  78
1720777052,095:   -251  74  78
1720777052,095:   -222  74  78
1720777052,095:   -150  74  78
1720777052,127:   -126  74  78
1720777052,127:   -173  74  78
1720777052,127:   -222  74  78
1720777052,127:   -205  74  78
1720777052,127:   -145  74  78
1720777052,127:   -121  74  78
1720777052,127:   -160  74  78
1720777052,127:   -204  74  78
1720777052,127:   -188  74  78
1720777052,127:   -135  74  78
1720777052,127:   -121  74  78
1720777052,127:   -173  74  78
1720777052,127:   -232  74  78
1720777052,127:   -228  74  78
1720777052,127:   -175  74  78
1720777052,127:   -149  74  78
1720777052,127:   -188  74  78
1720777052,127:   -239  74  78
1720777052,127:   -231  74  78
1720777052,127:   -169  74  78
1720777052,127:   -127  74  78
1720777052,127:   -147  74  78
1720777052,157:   -184  74  78
1720777052,157:   -168  74  78
1720777052,157:   -108  74  78
1720777052,157:    -79  74  78
1720777052,157:   -124  74  78
1720777052,157:   -191  74  78
1720777052,157:   -194  74  78
1720777052,157:   -128  74  78
1720777052,157:    -75  74  78
1720777052,157:    -98  74  78
1720777052,157:   -163  74  78
1720777052,157:   -183  74  78
1720777052,157:   -135  74  78
1720777052,157:    -87  74  78
1720777052,157:   -104  74  78
1720777052,188:   -165  74  78
1720777052,188:   -189  74  78
1720777052,188:   -148  74  78
1720777052,188:   -100  74  78
1720777052,188:   -109  74  78
1720777052,188:   -156  74  78
1720777052,188:   -165  74  78
1720777052,188:   -107  74  78
1720777052,188:    -44  74  78
1720777052,188:    -47  74  78
1720777052,188:   -104  74  78
1720777052,188:   -133  74  78
1720777052,188:    -94  74  78
1720777052,188:    -40  74  78
1720777052,188:    -43  74  78
1720777052,220:    -95  74  78
1720777052,220:   -119  74  78
1720777052,220:    -69  74  78
1720777052,220:      3  74  78
1720777052,220:     16  74  78
1720777052,220:    -34  74  78
1720777052,220:    -67  74  78
1720777052,220:    -27  74  78
1720777052,220:     44  74  78
1720777052,220:     60  74  78
1720777052,220:      5  74  78
1720777052,220:    -50  74  78
1720777052,220:    -38  74  78
1720777052,220:     14  74  78
1720777052,220:     28  74  78
1720777052,252:    -19  74  78
1720777052,252:    -64  74  78
1720777052,252:    -44  74  78
1720777052,252:     15  74  78
1720777052,252:     32  74  78
1720777052,252:    -17  74  78
1720777052,252:    -70  74  78
1720777052,252:    -58  74  78
1720777052,252:      1  74  78
1720777052,252:     24  74  78
1720777052,252:    -24  74  78
1720777052,252:    -84  74  78
1720777052,252:    -79  74  78
1720777052,252:    -19  74  78
1720777052,252:     14  74  78
1720777052,282:    -22  74  78
1720777052,282:    -79  74  78
1720777052,282:    -80  74  78
1720777052,282:    -22  74  78
1720777052,282:     25  74  78
1720777052,282:     14  74  78
1720777052,282:    -17  74  78
1720777052,282:     10  74  78
1720777052,282:    106  74  78
1720777052,282:    198  74  78
1720777052,282:    202  74  78
1720777052,282:     91  74  78
1720777052,282:   -102  74  78
1720777052,282:   -356  74  78
1720777052,282:   -681  74  78
1720777052,313:  -1080  74  78
1720777052,313:  -1485  74  78
1720777052,313:  -1772  74  78
1720777052,313:  -1844  74  78
1720777052,313:  -1678  74  78
1720777052,313:  -1288  74  78
1720777052,313:   -652  74  78
1720777052,313:    315  74  78
1720777052,313:   1679  74  78
1720777052,313:   3378  74  78
1720777052,313:   5227  74  78
1720777052,313:   7033  74  78
1720777052,313:   8723  74  78
1720777052,313:  10340  74  78
1720777052,313:  11892  74  78
1720777052,345:  13258  71  77
1720777052,345:  14240  71  77
1720777052,345:  14712  71  77
1720777052,345:  14679  71  77
1720777052,345:  14178  71  77
1720777052,345:  13156  71  77
1720777052,345:  11515  71  77
1720777052,345:   9297  71  77
1720777052,345:   6786  71  77
1720777052,345:   4374  71  77
1720777052,345:   2305  71  77
1720777052,345:    569  71  77
1720777052,345:   -944  71  77
1720777052,345:  -2230  71  77
1720777052,345:  -3127  71  77
1720777052,377:  -3485  71  77
1720777052,377:  -3347  71  77
1720777052,377:  -2958  71  77
1720777052,377:  -2605  71  77
1720777052,377:  -2469  71  77
1720777052,377:  -2568  71  77
1720777052,377:  -2803  71  77
1720777052,377:  -3046  71  77
1720777052,377:  -3227  71  77
1720777052,377:  -3364  71  77
1720777052,377:  -3514  71  77
1720777052,377:  -3679  71  77
1720777052,377:  -3784  71  77
1720777052,377:  -3739  71  77
1720777052,377:  -3544  71  77
1720777052,407:  -3305  71  77
1720777052,407:  -3122  71  77
1720777052,407:  -3012  71  77
1720777052,407:  -2933  71  77
1720777052,407:  -2881  71  77
1720777052,407:  -2902  71  77
1720777052,407:  -2992  71  77
1720777052,407:  -3057  71  77
1720777052,407:  -2985  71  77
1720777052,407:  -2772  71  77
1720777052,407:  -2532  71  77
1720777052,407:  -2382  71  77
1720777052,407:  -2327  71  77
1720777052,407:  -2290  71  77
1720777052,407:  -2232  71  77
1720777052,439:  -2191  71  77
1720777052,439:  -2205  71  77
1720777052,439:  -2227  71  77
1720777052,439:  -2168  71  77
1720777052,439:  -2009  71  77
1720777052,439:  -1836  71  77
1720777052,439:  -1750  71  77
1720777052,439:  -1749  71  77
1720777052,439:  -1743  71  77
1720777052,439:  -1676  71  77
1720777052,439:  -1589  71  77
1720777052,439:  -1556  71  77
1720777052,439:  -1575  71  77
1720777052,439:  -1572  71  77
1720777052,439:  -1495  71  77
1720777052,439:  -1390  71  77
1720777052,439:  -1337  71  77
1720777052,439:  -1352  71  77
1720777052,439:  -1365  71  77
1720777052,439:  -1319  71  77
1720777052,470:  -1245  71  77
1720777052,470:  -1212  71  77
1720777052,470:  -1233  71  77
1720777052,470:  -1247  71  77
1720777052,470:  -1200  71  77
1720777052,470:  -1121  71  77
1720777052,470:  -1084  71  77
1720777052,470:  -1104  71  77
1720777052,470:  -1120  71  77
1720777052,470:  -1072  71  77
1720777052,470:   -984  71  77
1720777052,470:   -934  71  77
1720777052,470:   -952  71  77
1720777052,470:   -980  71  77
1720777052,470:   -948  71  77
1720777052,502:   -868  71  77
1720777052,502:   -816  71  77
1720777052,502:   -833  71  77
1720777052,502:   -873  71  77
1720777052,502:   -864  71  77
1720777052,502:   -806  71  77
1720777052,502:   -768  71  77
1720777052,502:   -794  71  77
1720777052,502:   -837  71  77
1720777052,502:   -823  71  77
1720777052,502:   -744  71  77
1720777052,502:   -678  71  77
1720777052,502:   -680  71  77
1720777052,502:   -720  71  77
1720777052,502:   -717  71  77
1720777052,534:   -656  71  77
1720777052,534:   -603  71  77
1720777052,534:   -618  71  77
1720777052,534:   -669  71  77
1720777052,534:   -675  71  77
1720777052,534:   -615  71  77
1720777052,534:   -557  71  77
1720777052,534:   -571  71  77
1720777052,534:   -629  71  77
1720777052,534:   -644  71  77
1720777052,534:   -584  71  77
1720777052,534:   -519  71  77
1720777052,534:   -527  71  77
1720777052,534:   -592  71  77
1720777052,534:   -621  71  77
1720777052,566:   -564  71  77
1720777052,566:   -480  71  77
1720777052,566:   -453  71  77
1720777052,566:   -483  71  77
1720777052,566:   -490  71  77
1720777052,566:   -422  71  77
1720777052,566:   -329  71  77
1720777052,566:   -291  71  77
1720777052,566:   -313  71  77
1720777052,566:   -313  71  77
1720777052,566:   -238  71  77
1720777052,566:   -132  71  77
1720777052,566:    -82  71  77
1720777052,566:   -100  71  77
1720777052,566:   -108  71  77
1720777052,566:    -38  71  77
1720777052,566:     74  71  77
1720777052,566:    140  71  77
1720777052,566:    135  71  77
1720777052,566:    130  71  77
1720777052,566:    195  71  77
1720777052,566:    303  71  77
1720777052,596:    369  71  77
1720777052,596:    362  71  77
1720777052,596:    346  71  77
1720777052,596:    393  71  77
1720777052,596:    483  71  77
1720777052,596:    527  71  77
1720777052,596:    485  71  77
1720777052,596:    418  71  77
1720777052,627:    413  71  77
1720777052,627:    468  71  77
1720777052,627:    503  71  77
1720777052,627:    465  71  77
1720777052,627:    400  71  77
1720777052,627:    391  71  77
1720777052,627:    443  71  77
1720777052,627:    482  71  77
1720777052,627:    456  71  77
1720777052,627:    400  71  77
1720777052,627:    393  71  77
1720777052,627:    445  71  77
1720777052,627:    483  71  77
1720777052,627:    452  71  77
1720777052,627:    386  71  77
1720777052,659:    370  71  77
1720777052,659:    420  71  77
1720777052,659:    467  71  77
1720777052,659:    444  71  77
1720777052,659:    380  71  77
1720777052,659:    358  71  77
1720777052,659:    402  71  77
1720777052,659:    446  71  77
1720777052,659:    422  71  77
1720777052,659:    354  71  77
1720777052,659:    330  71  77
1720777052,659:    381  71  77
1720777052,659:    434  71  77
1720777052,659:    413  71  77
1720777052,659:    340  71  77
1720777052,659:    309  71  77
1720777052,659:    364  71  77
1720777052,659:    436  71  77
1720777052,659:    434  71  77
1720777052,659:    362  71  77
1720777052,659:    311  71  77
1720777052,659:    339  71  77
1720777052,691:    393  71  77
1720777052,691:    385  71  77
1720777052,691:    310  71  77
1720777052,691:    256  71  77
1720777052,691:    284  71  77
1720777052,691:    352  71  77
1720777052,691:    368  71  77
1720777052,691:    310  71  77
1720777052,691:    255  71  77
1720777052,691:    273  71  77
1720777052,691:    337  71  77
1720777052,691:    365  71  77
1720777052,691:    324  71  77
1720777052,691:    272  71  77
1720777052,691:    278  71  77
1720777052,722:    330  71  77
1720777052,722:    357  71  77
1720777052,722:    326  71  77
1720777052,722:    281  71  77
1720777052,722:    286  71  77
1720777052,722:    330  71  77
1720777052,722:    352  71  77
1720777052,722:    321  71  77
1720777052,722:    282  71  77
1720777052,722:    293  71  77
1720777052,722:    344  71  77
1720777052,722:    365  71  77
1720777052,722:    323  71  77
1720777052,722:    266  71  77
1720777052,722:    263  71  77
1720777052,754:    310  71  77
1720777052,754:    334  71  77
1720777052,754:    292  71  77
1720777052,754:    226  71  77
1720777052,754:    209  71  77
1720777052,754:    251  71  77
1720777052,754:    285  71  77
1720777052,754:    260  71  77
1720777052,754:    206  71  77
1720777052,754:    191  71  77
1720777052,754:    229  71  77
1720777052,754:    257  71  77
1720777052,754:    228  71  77
1720777052,754:    169  71  77
1720777052,754:    155  71  77
1720777052,754:    203  71  77
1720777052,754:    249  71  77
1720777052,754:    232  71  77
1720777052,754:    171  71  77
1720777052,754:    138  71  77
1720777052,754:    167  71  77
1720777052,754:    207  71  77
1720777052,754:    194  71  77
1720777052,784:    136  71  77
1720777052,784:    102  71  77
1720777052,784:    127  71  77
1720777052,784:    166  71  77
1720777052,784:    158  71  77
1720777052,784:    105  71  77
1720777052,784:     78  71  77
1720777052,784:    113  71  77
1720777052,784:    167  71  77
1720777052,784:    166  71  77
1720777052,784:    111  71  77
1720777052,784:     76  71  77
1720777052,784:    115  71  77
1720777052,784:    184  71  77
1720777052,784:    196  71  77
1720777052,815:    135  71  77
1720777052,815:     75  71  77
1720777052,815:     87  71  77
1720777052,815:    146  71  77
1720777052,815:    164  71  77
1720777052,815:    109  71  77
1720777052,815:     49  71  77
1720777052,847:     62  71  77
1720777052,847:    131  71  77
1720777052,847:    170  71  77
1720777052,847:    135  71  77
1720777052,847:     81  71  77
1720777052,847:     83  71  77
1720777052,847:    133  71  77
1720777052,847:    153  71  77
1720777052,847:    104  71  77
1720777052,847:     41  71  77
1720777052,847:     41  71  77
1720777052,847:    100  71  77
1720777052,847:    135  71  77
1720777052,847:     98  71  77
1720777052,847:     36  71  77
1720777052,847:     29  71  77
1720777052,847:     82  71  77
1720777052,847:    119  71  77
1720777052,847:     85  71  77
1720777052,847:     21  71  77
1720777052,847:      8  71  77
1720777052,847:     59  71  77
1720777052,847:    106  71  77
1720777052,879:     90  71  77
1720777052,879:     39  71  77
1720777052,879:     29  71  77
1720777052,879:     79  71  77
1720777052,879:    123  71  77
1720777052,879:    104  71  77
1720777052,879:     44  71  77
1720777052,879:     21  71  77
1720777052,879:     60  71  77
1720777052,879:    101  71  77
1720777052,879:     84  71  77
1720777052,879:     30  71  77
1720777052,879:     16  71  77
1720777052,879:     67  71  77
1720777052,879:    123  71  77
1720777052,910:    114  71  77
1720777052,910:     56  71  77
1720777052,910:     29  71  77
1720777052,910:     72  71  77
1720777052,910:    128  71  77
1720777052,910:    124  71  77
1720777052,910:     65  71  77
1720777052,910:     26  71  77
1720777052,910:     55  71  77
1720777052,910:    106  71  77
1720777052,910:    108  71  77
1720777052,910:     58  71  77
1720777052,910:     26  71  77
1720777052,910:     59  71  77
1720777052,910:    113  71  77
1720777052,942:    117  71  77
1720777052,942:     66  71  77
1720777052,942:     31  71  77
1720777052,942:     66  71  77
1720777052,942:    133  71  77
1720777052,942:    150  71  77
1720777052,942:     99  71  77
1720777052,942:     50  71  77
1720777052,942:     72  71  77
1720777052,942:    141  71  77
1720777052,942:    175  71  77
1720777052,942:    135  71  77
1720777052,942:     79  71  77
1720777052,942:     78  71  77
1720777052,942:    130  71  77
1720777052,973:    159  71  77
1720777052,973:    120  71  77
1720777052,973:     59  71  77
1720777052,973:     54  71  77
1720777052,973:    107  71  77
1720777052,973:    146  71  77
1720777052,973:    120  71  77
1720777052,973:     61  71  77
1720777052,973:     44  71  77
1720777052,973:     82  71  77
1720777052,973:    114  71  77
1720777052,973:     85  71  77
1720777052,973:     24  71  77
1720777052,973:      2  71  77
1720777052,973:     38  71  77
1720777052,973:     76  71  77
1720777052,973:     62  71  77
1720777052,973:     17  71  77
1720777052,973:      9  71  77
1720777052,973:     53  71  77
1720777052,973:     88  71  77
1720777052,973:     56  71  77
1720777053,004:    -20  71  77
1720777053,004:    -60  71  77
1720777053,004:    -35  71  77
1720777053,004:      2  71  77
1720777053,004:     -9  71  77
1720777053,004:    -55  71  77
1720777053,004:    -66  71  77
1720777053,004:    -12  71  77
1720777053,035:     47  71  77
1720777053,035:     46  71  77
1720777053,035:     -5  71  77
1720777053,035:    -33  71  77
1720777053,035:      0  71  77
1720777053,035:     44  71  77
1720777053,035:     27  71  77
1720777053,035:    -45  71  77
1720777053,035:    -96  71  77
1720777053,035:    -74  71  77
1720777053,035:    -16  71  77
1720777053,035:      4  71  77
1720777053,035:    -27  71  77
1720777053,035:    -52  71  77
1720777053,035:    -23  71  77
1720777053,067:     31  71  77
1720777053,067:     43  71  77
1720777053,067:     -2  71  77
1720777053,067:    -49  71  77
1720777053,067:    -45  71  77
1720777053,067:    -10  71  77
1720777053,067:     -5  71  77
1720777053,067:    -51  71  77
1720777053,067:    -98  71  77
1720777053,067:    -90  71  77
1720777053,067:    -38  71  77
1720777053,067:      1  71  77
1720777053,067:     -6  71  77
1720777053,067:    -24  71  77
1720777053,067:     -1  71  77
1720777053,067:     58  71  77
1720777053,067:    103  71  77
1720777053,067:    106  71  77
1720777053,067:    109  71  77
1720777053,067:    168  71  77
1720777053,067:    262  71  77
1720777053,067:    286  71  77
1720777053,099:    156  71  77
1720777053,099:   -113  71  77
1720777053,099:   -432  71  77
1720777053,099:   -759  71  77
1720777053,099:  -1118  71  77
1720777053,099:  -1508  71  77
1720777053,099:  -1811  71  77
1720777053,099:  -1853  71  77
1720777053,099:  -1544  71  77
1720777053,099:   -926  71  77
1720777053,099:    -66  71  77
1720777053,099:   1065  71  77
1720777053,099:   2560  71  77
1720777053,099:   4398  71  77
1720777053,099:   6361  71  77
1720777053,131:   8188  76  75
1720777053,131:   9793  76  75
1720777053,131:  11288  76  75
1720777053,131:  12757  76  75
1720777053,131:  14068  76  75
1720777053,131:  14951  76  75
1720777053,131:  15259  76  75
1720777053,131:  15078  76  75
1720777053,131:  14529  76  75
1720777053,131:  13531  76  75
1720777053,131:  11861  76  75
1720777053,131:   9485  76  75
1720777053,131:   6761  76  75
1720777053,131:   4212  76  75
1720777053,131:   2106  76  75
1720777053,162:    328  76  75
1720777053,162:  -1332  76  75
1720777053,162:  -2815  76  75
1720777053,162:  -3812  76  75
1720777053,162:  -4110  76  75
1720777053,162:  -3849  76  75
1720777053,162:  -3407  76  75
1720777053,162:  -3085  76  75
1720777053,162:  -2953  76  75
1720777053,162:  -2962  76  75
1720777053,162:  -3075  76  75
1720777053,162:  -3281  76  75
1720777053,162:  -3529  76  75
1720777053,162:  -3736  76  75
1720777053,162:  -3872  76  75
1720777053,194:  -3973  76  75
1720777053,194:  -4053  76  75
1720777053,194:  -4050  76  75
1720777053,194:  -3890  76  75
1720777053,194:  -3611  76  75
1720777053,194:  -3342  76  75
1720777053,194:  -3192  76  75
1720777053,194:  -3161  76  75
1720777053,194:  -3184  76  75
1720777053,194:  -3221  76  75
1720777053,194:  -3268  76  75
1720777053,194:  -3305  76  75
1720777053,194:  -3263  76  75
1720777053,194:  -3091  76  75
1720777053,194:  -2834  76  75
1720777053,225:  -2611  76  75
1720777053,225:  -2505  76  75
1720777053,225:  -2495  76  75
1720777053,225:  -2497  76  75
1720777053,225:  -2466  76  75
1720777053,225:  -2421  76  75
1720777053,225:  -2392  76  75
1720777053,225:  -2356  76  75
1720777053,225:  -2268  76  75
1720777053,225:  -2134  76  75
1720777053,225:  -2023  76  75
1720777053,225:  -1987  76  75
1720777053,225:  -2000  76  75
1720777053,225:  -1985  76  75
1720777053,225:  -1911  76  75
1720777053,257:  -1830  76  75
1720777053,257:  -1801  76  75
1720777053,257:  -1807  76  75
1720777053,257:  -1774  76  75
1720777053,257:  -1675  76  75
1720777053,257:  -1574  76  75
1720777053,257:  -1545  76  75
1720777053,257:  -1580  76  75
1720777053,257:  -1593  76  75
1720777053,257:  -1530  76  75
1720777053,257:  -1441  76  75
1720777053,257:  -1406  76  75
1720777053,257:  -1433  76  75
1720777053,257:  -1443  76  75
1720777053,257:  -1378  76  75
1720777053,288:  -1281  76  75
1720777053,288:  -1237  76  75
1720777053,288:  -1263  76  75
1720777053,288:  -1289  76  75
1720777053,288:  -1246  76  75
1720777053,288:  -1163  76  75
1720777053,288:  -1118  76  75
1720777053,288:  -1139  76  75
1720777053,288:  -1167  76  75
1720777053,288:  -1137  76  75
1720777053,288:  -1068  76  75
1720777053,288:  -1031  76  75
1720777053,288:  -1056  76  75
1720777053,288:  -1094  76  75
1720777053,288:  -1082  76  75
1720777053,288:  -1035  76  75
1720777053,288:  -1016  76  75
1720777053,288:  -1052  76  75
1720777053,288:  -1091  76  75
1720777053,288:  -1073  76  75
1720777053,288:  -1010  76  75
1720777053,288:   -968  76  75
1720777053,288:   -980  76  75
1720777053,319:  -1004  76  75
1720777053,319:   -982  76  75
1720777053,319:   -920  76  75
1720777053,319:   -884  76  75
1720777053,319:   -905  76  75
1720777053,319:   -940  76  75
1720777053,319:   -925  76  75
1720777053,319:   -860  76  75
1720777053,319:   -811  76  75
1720777053,319:   -819  76  75
1720777053,319:   -847  76  75
1720777053,319:   -824  76  75
1720777053,319:   -742  76  75
1720777053,319:   -667  76  75
1720777053,319:   -654  76  75
1720777053,350:   -682  76  75
1720777053,350:   -680  76  75
1720777053,350:   -622  76  75
1720777053,350:   -557  76  75
1720777053,350:   -540  76  75
1720777053,350:   -560  76  75
1720777053,350:   -561  76  75
1720777053,350:   -520  76  75
1720777053,350:   -482  76  75
1720777053,350:   -488  76  75
1720777053,350:   -511  76  75
1720777053,350:   -484  76  75
1720777053,350:   -389  76  75
1720777053,350:   -294  76  75
1720777053,350:   -262  76  75
1720777053,382:   -270  76  75
1720777053,382:   -232  76  75
1720777053,382:   -111  76  75
1720777053,382:     24  76  75
1720777053,382:     88  76  75
1720777053,382:     81  76  75
1720777053,382:     86  76  75
1720777053,382:    160  76  75
1720777053,382:    258  76  75
1720777053,382:    297  76  75
1720777053,382:    267  76  75
1720777053,382:    241  76  75
1720777053,382:    279  76  75
1720777053,382:    347  76  75
1720777053,382:    364  76  75
1720777053,414:    316  76  75
1720777053,414:    271  76  75
1720777053,414:    291  76  75
1720777053,414:    349  76  75
1720777053,414:    366  76  75
1720777053,414:    315  76  75
1720777053,414:    255  76  75
1720777053,414:    253  76  75
1720777053,414:    291  76  75
1720777053,414:    298  76  75
1720777053,414:    245  76  75
1720777053,414:    187  76  75
1720777053,414:    190  76  75
1720777053,414:    237  76  75
1720777053,414:    251  76  75
1720777053,444:    191  76  75
1720777053,444:    110  76  75
1720777053,444:     82  76  75
1720777053,444:    110  76  75
1720777053,444:    121  76  75
1720777053,444:     66  76  75
1720777053,444:    -17  76  75
1720777053,444:    -50  76  75
1720777053,444:    -23  76  75
1720777053,444:     -5  76  75
1720777053,444:    -49  76  75
1720777053,444:   -121  76  75
1720777053,444:   -145  76  75
1720777053,444:   -107  76  75
1720777053,444:    -75  76  75
1720777053,476:   -109  76  75
1720777053,476:   -180  76  75
1720777053,476:   -206  76  75
1720777053,476:   -166  76  75
1720777053,476:   -126  76  75
1720777053,476:   -150  76  75
1720777053,476:   -220  76  75
1720777053,476:   -257  76  75
1720777053,476:   -228  76  75
1720777053,476:   -189  76  75
1720777053,476:   -207  76  75
1720777053,476:   -269  76  75
1720777053,476:   -299  76  75
1720777053,476:   -263  76  75
1720777053,476:   -218  76  75
1720777053,476:   -232  76  75
1720777053,476:   -298  76  75
1720777053,476:   -339  76  75
1720777053,476:   -311  76  75
1720777053,476:   -265  76  75
1720777053,508:   -276  76  75
1720777053,508:   -346  76  75
1720777053,508:   -399  76  75
1720777053,508:   -380  76  75
1720777053,508:   -332  76  75
1720777053,508:   -333  76  75
1720777053,508:   -394  76  75
1720777053,508:   -439  76  75
1720777053,508:   -408  76  75
1720777053,508:   -338  76  75
1720777053,508:   -320  76  75
1720777053,508:   -378  76  75
1720777053,508:   -437  76  75
1720777053,508:   -421  76  75
1720777053,508:   -350  76  75
1720777053,540:   -315  76  75
1720777053,540:   -361  76  75
1720777053,540:   -432  76  75
1720777053,540:   -447  76  75
1720777053,540:   -405  76  75
1720777053,540:   -379  76  75
1720777053,540:   -415  76  75
1720777053,540:   -472  76  75
1720777053,540:   -474  76  75
1720777053,540:   -420  76  75
1720777053,540:   -376  76  75
1720777053,540:   -393  76  75
1720777053,540:   -434  76  75
1720777053,540:   -429  76  75
1720777053,540:   -370  76  75
1720777053,571:   -328  76  75
1720777053,571:   -360  76  75
1720777053,571:   -437  76  75
1720777053,571:   -478  76  75
1720777053,571:   -453  76  75
1720777053,571:   -417  76  75
1720777053,571:   -437  76  75
1720777053,571:   -500  76  75
1720777053,571:   -530  76  75
1720777053,571:   -492  76  75
1720777053,571:   -437  76  75
1720777053,571:   -436  76  75
1720777053,571:   -485  76  75
1720777053,571:   -508  76  75
1720777053,571:   -463  76  75
1720777053,602:   -399  76  75
1720777053,602:   -391  76  75
1720777053,602:   -445  76  75
1720777053,602:   -482  76  75
1720777053,602:   -448  76  75
1720777053,602:   -384  76  75
1720777053,602:   -371  76  75
1720777053,602:   -423  76  75
1720777053,602:   -465  76  75
1720777053,602:   -437  76  75
1720777053,602:   -374  76  75
1720777053,602:   -360  76  75
1720777053,602:   -411  76  75
1720777053,602:   -457  76  75
1720777053,602:   -434  76  75
1720777053,633:   -374  76  75
1720777053,633:   -360  76  75
1720777053,633:   -414  76  75
1720777053,633:   -466  76  75
1720777053,633:   -447  76  75
1720777053,633:   -379  76  75
1720777053,633:   -348  76  75
1720777053,633:   -389  76  75
1720777053,633:   -444  76  75
1720777053,633:   -438  76  75
1720777053,633:   -381  76  75
1720777053,633:   -353  76  75
1720777053,633:   -399  76  75
1720777053,633:   -464  76  75
1720777053,633:   -472  76  75
1720777053,633:   -421  76  75
1720777053,633:   -388  76  75
1720777053,633:   -425  76  75
1720777053,633:   -491  76  75
1720777053,633:   -511  76  75
1720777053,633:   -480  76  75
1720777053,633:   -468  76  75
1720777053,663:   -523  76  75
1720777053,663:   -600  76  75
1720777053,663:   -617  76  75
1720777053,663:   -565  76  75
1720777053,663:   -525  76  75
1720777053,663:   -555  76  75
1720777053,663:   -616  76  75
1720777053,663:   -618  76  75
1720777053,663:   -541  76  75
1720777053,663:   -469  76  75
1720777053,663:   -476  76  75
1720777053,663:   -538  76  75
1720777053,663:   -563  76  75
1720777053,663:   -515  76  75
1720777053,663:   -460  76  75
1720777053,694:   -471  76  75
1720777053,694:   -534  76  75
1720777053,694:   -570  76  75
1720777053,694:   -539  76  75
1720777053,694:   -496  76  75
1720777053,694:   -507  76  75
1720777053,694:   -563  76  75
1720777053,694:   -588  76  75
1720777053,724:   -548  76  75
1720777053,724:   -495  76  75
1720777053,724:   -495  76  75
1720777053,724:   -541  76  75
1720777053,724:   -561  76  75
1720777053,724:   -516  76  75
1720777053,724:   -457  76  75
1720777053,724:   -457  76  75
1720777053,724:   -513  76  75
1720777053,724:   -546  76  75
1720777053,724:   -506  76  75
1720777053,724:   -439  76  75
1720777053,724:   -430  76  75
1720777053,724:   -493  76  75
1720777053,724:   -551  76  75
1720777053,755:   -542  76  75
1720777053,755:   -495  76  75
1720777053,755:   -491  76  75
1720777053,755:   -551  76  75
1720777053,755:   -612  76  75
1720777053,755:   -609  76  75
1720777053,755:   -564  76  75
1720777053,755:   -548  76  75
1720777053,755:   -586  76  75
1720777053,755:   -620  76  75
1720777053,755:   -591  76  75
1720777053,755:   -525  76  75
1720777053,755:   -501  76  75
1720777053,755:   -549  76  75
1720777053,755:   -610  76  75
1720777053,755:   -609  76  75
1720777053,755:   -557  76  75
1720777053,755:   -534  76  75
1720777053,755:   -580  76  75
1720777053,755:   -644  76  75
1720777053,755:   -647  76  75
1720777053,755:   -584  76  75
1720777053,785:   -528  76  75
1720777053,785:   -527  76  75
1720777053,785:   -544  76  75
1720777053,785:   -512  76  75
1720777053,785:   -431  76  75
1720777053,785:   -375  76  75
1720777053,785:   -392  76  75
1720777053,785:   -443  76  75
1720777053,785:   -450  76  75
1720777053,785:   -399  76  75
1720777053,785:   -358  76  75
1720777053,785:   -382  76  75
1720777053,785:   -440  76  75
1720777053,785:   -450  76  75
1720777053,785:   -392  76  75
1720777053,816:   -332  76  75
1720777053,816:   -336  76  75
1720777053,816:   -388  76  75
1720777053,816:   -410  76  75
1720777053,816:   -369  76  75
1720777053,816:   -322  76  75
1720777053,816:   -338  76  75
1720777053,816:   -405  76  75
1720777053,816:   -440  76  75
1720777053,816:   -399  76  75
1720777053,816:   -332  76  75
1720777053,816:   -319  76  75
1720777053,816:   -367  76  75
1720777053,816:   -404  76  75
