timestamp: ADC HeartRate4sAverage HeartRate30sAverage
1720775296,112:    198  69  73
1720775296,112:   2532  69  73
1720775296,112:   1704  69  73
1720775296,112:  -1258  69  73
1720775296,112:  -2412  69  73
1720775296,112:   -231  69  73
1720775296,112:   2411  69  73
1720775296,112:   2101  69  73
1720775296,112:   -599  69  73
1720775296,112:  -1900  69  73
1720775296,112:     38  69  73
1720775296,112:   2626  69  73
1720775296,112:   2360  69  73
1720775296,112:   -521  69  73
1720775296,112:  -2216  69  73
1720775296,144:   -490  69  73
1720775296,144:   2365  69  73
1720775296,144:   2639  69  73
1720775296,144:    105  69  73
1720775296,144:  -1674  69  73
1720775296,144:   -188  69  73
1720775296,144:   2593  69  73
1720775296,144:   2924  69  73
1720775296,144:    248  69  73
1720775296,144:  -1931  69  73
1720775296,144:   -748  69  73
1720775296,144:   2196  69  73
1720775296,144:   3043  69  73
1720775296,144:    780  69  73
1720775296,144:  -1405  69  73
1720775296,144:   -445  69  73
1720775296,144:   2406  69  73
1720775296,144:   3320  69  73
1720775296,144:    972  69  73
1720775296,144:  -1586  69  73
1720775296,175:   -977  69  73
1720775296,175:   1967  69  73
1720775296,175:   3397  69  73
1720775296,175:   1546  69  73
1720775296,175:   -936  69  73
1720775296,175:   -560  69  73
1720775296,175:   2215  69  73
1720775296,175:   3677  69  73
1720775296,175:   1799  69  73
1720775296,175:   -984  69  73
1720775296,175:   -980  69  73
1720775296,175:   1764  69  73
1720775296,175:   3610  69  73
1720775296,175:   2176  69  73
1720775296,175:   -494  69  73
1720775296,206:   -668  69  73
1720775296,206:   1955  69  73
1720775296,206:   3878  69  73
1720775296,206:   2473  69  73
1720775296,206:   -479  69  73
1720775296,206:  -1067  69  73
1720775296,206:   1459  69  73
1720775296,206:   3767  69  73
1720775296,206:   2889  69  73
1720775296,206:    151  69  73
1720775296,206:   -603  69  73
1720775296,206:   1722  69  73
1720775296,206:   4017  69  73
1720775296,206:   3152  69  73
1720775296,206:    161  69  73
1720775296,206:  -1009  69  73
1720775296,206:   1167  69  73
1720775296,206:   3803  69  73
1720775296,206:   3474  69  73
1720775296,206:    738  69  73
1720775296,206:   -604  69  73
1720775296,206:   1312  69  73
1720775296,237:   3898  69  73
1720775296,237:   3621  69  73
1720775296,237:    697  69  73
1720775296,237:  -1066  69  73
1720775296,237:    593  69  73
1720775296,237:   3400  69  73
1720775296,237:   3634  69  73
1720775296,237:   1047  69  73
1720775296,269:   -794  69  73
1720775296,269:    639  69  73
1720775296,269:   3391  69  73
1720775296,269:   3695  69  73
1720775296,269:    969  69  73
1720775296,269:  -1277  69  73
1720775296,269:   -140  69  73
1720775296,269:   2801  69  73
1720775296,269:   3661  69  73
1720775296,269:   1381  69  73
1720775296,269:   -866  69  73
1720775296,269:     25  69  73
1720775296,269:   2840  69  73
1720775296,269:   3752  69  73
1720775296,269:   1396  69  73
1720775296,300:  -1199  69  73
1720775296,300:   -640  69  73
1720775296,300:   2263  69  73
1720775296,300:   3659  69  73
1720775296,300:   1763  69  73
1720775296,300:   -772  69  73
1720775296,300:   -431  69  73
1720775296,300:   2346  69  73
1720775296,300:   3817  69  73
1720775296,300:   1911  69  73
1720775296,300:   -937  69  73
1720775296,300:   -987  69  73
1720775296,300:   1760  69  73
1720775296,300:   3654  69  73
1720775296,300:   2257  69  73
1720775296,332:   -426  69  73
1720775296,332:   -647  69  73
1720775296,332:   1931  69  73
1720775296,332:   3826  69  73
1720775296,332:   2394  69  73
1720775296,332:   -595  69  73
1720775296,332:  -1213  69  73
1720775296,332:   1309  69  73
1720775296,332:   3616  69  73
1720775296,332:   2704  69  73
1720775296,332:   -105  69  73
1720775296,332:   -921  69  73
1720775296,332:   1408  69  73
1720775296,332:   3763  69  73
1720775296,332:   2941  69  73
1720775296,332:    -79  69  73
1720775296,332:  -1318  69  73
1720775296,332:    819  69  73
1720775296,332:   3470  69  73
1720775296,332:   3167  69  73
1720775296,332:    413  69  73
1720775296,332:   -975  69  73
1720775296,364:    928  69  73
1720775296,364:   3551  69  73
1720775296,364:   3321  69  73
1720775296,364:    401  69  73
1720775296,364:  -1388  69  73
1720775296,364:    287  69  73
1720775296,364:   3181  69  73
1720775296,364:   3518  69  73
1720775296,364:    975  69  73
1720775296,364:   -888  69  73
1720775296,364:    524  69  73
1720775296,364:   3303  69  73
1720775296,364:   3667  69  73
1720775296,364:    977  69  73
1720775296,364:  -1277  69  73
1720775296,396:   -154  69  73
1720775296,396:   2798  69  73
1720775296,396:   3679  69  73
1720775296,396:   1399  69  73
1720775296,396:   -864  69  73
1720775296,396:     38  69  73
1720775296,396:   2911  69  73
1720775296,396:   3885  69  73
1720775296,396:   1542  69  73
1720775296,396:  -1093  69  73
1720775296,396:   -565  69  73
1720775296,396:   2363  69  73
1720775296,396:   3809  69  73
1720775296,396:   1927  69  73
1720775296,396:   -645  69  73
1720775296,427:   -337  69  73
1720775296,427:   2449  69  73
1720775296,427:   3944  69  73
1720775296,427:   2024  69  73
1720775296,427:   -881  69  73
1720775296,427:   -958  69  73
1720775296,427:   1838  69  73
1720775296,427:   3795  69  73
1720775296,427:   2383  69  73
1720775296,427:   -399  69  73
1720775296,427:   -694  69  73
1720775296,427:   1927  69  73
1720775296,427:   3937  69  73
1720775296,427:   2563  69  73
1720775296,427:   -486  69  73
1720775296,459:  -1194  69  73
1720775296,459:   1320  69  73
1720775296,459:   3699  69  73
1720775296,459:   2836  69  73
1720775296,459:    -10  69  73
1720775296,459:   -885  69  73
1720775296,459:   1449  69  73
1720775296,459:   3854  69  73
1720775296,459:   3027  69  73
1720775296,459:    -89  69  73
1720775296,459:  -1426  69  73
1720775296,459:    727  69  73
1720775296,459:   3493  69  73
1720775296,459:   3266  69  73
1720775296,459:    473  69  73
1720775296,491:   -994  69  73
1720775296,491:    921  69  73
1720775296,491:   3651  69  73
1720775296,491:   3494  69  73
1720775296,491:    520  69  73
1720775296,491:  -1384  69  73
1720775296,491:    246  69  73
1720775296,491:   3190  69  73
1720775296,491:   3562  69  73
1720775296,491:    953  69  73
1720775296,491:  -1010  69  73
1720775296,491:    415  69  73
1720775296,491:   3340  69  73
1720775296,491:   3837  69  73
1720775296,491:   1131  69  73
1720775296,522:  -1243  69  73
1720775296,522:   -178  69  73
1720775296,522:   2850  69  73
1720775296,522:   3832  69  73
1720775296,522:   1536  69  73
1720775296,522:   -847  69  73
1720775296,522:    -15  69  73
1720775296,522:   2914  69  73
1720775296,522:   3975  69  73
1720775296,522:   1606  69  73
1720775296,522:  -1155  69  73
1720775296,522:   -693  69  73
1720775296,522:   2324  69  73
1720775296,522:   3918  69  73
1720775296,522:   2066  69  73
1720775296,522:   -618  69  73
1720775296,522:   -398  69  73
1720775296,522:   2464  69  73
1720775296,522:   4128  69  73
1720775296,522:   2274  69  73
1720775296,522:   -736  69  73
1720775296,522:   -949  69  73
1720775296,522:   1846  69  73
1720775296,552:   3923  69  73
1720775296,552:   2582  69  73
1720775296,552:   -273  69  73
1720775296,552:   -681  69  73
1720775296,552:   1944  69  73
1720775296,552:   4075  69  73
1720775296,552:   2778  69  73
1720775296,552:   -341  69  73
1720775296,552:  -1181  69  73
1720775296,552:   1311  69  73
1720775296,552:   3807  69  73
1720775296,552:   3053  69  73
1720775296,552:    169  69  73
1720775296,552:   -848  69  73
1720775296,552:   1410  69  73
1720775296,583:   3887  69  73
1720775296,583:   3188  69  73
1720775296,583:    107  69  73
1720775296,583:  -1309  69  73
1720775296,583:    761  69  73
1720775296,583:   3532  69  73
1720775296,583:   3366  69  73
1720775296,583:    583  69  73
1720775296,583:   -957  69  73
1720775296,583:    884  69  73
1720775296,583:   3625  69  73
1720775296,583:   3542  69  73
1720775296,583:    605  69  73
1720775296,583:  -1343  69  73
1720775296,583:    231  69  73
1720775296,615:   3198  69  73
1720775296,615:   3663  69  73
1720775296,615:   1115  69  73
1720775296,615:   -892  69  73
1720775296,615:    430  69  73
1720775296,615:   3298  69  73
1720775296,615:   3823  69  73
1720775296,615:   1161  69  73
1720775296,615:  -1228  69  73
1720775296,615:   -215  69  73
1720775296,615:   2809  69  73
1720775296,615:   3863  69  73
1720775296,615:   1640  69  73
1720775296,615:   -756  69  73
1720775296,615:    -10  69  73
1720775296,646:   2873  69  73
1720775296,646:   3993  69  73
1720775296,646:   1729  69  73
1720775296,646:   -997  69  73
1720775296,646:   -601  69  73
1720775296,646:   2336  69  73
1720775296,646:   3932  69  73
1720775296,646:   2153  69  73
1720775296,646:   -493  69  73
1720775296,646:   -333  69  73
1720775296,646:   2434  69  73
1720775296,646:   4068  69  73
1720775296,646:   2267  69  73
1720775296,646:   -693  69  73
1720775296,646:   -923  69  73
1720775296,677:   1826  69  73
1720775296,677:   3920  69  73
1720775296,677:   2668  69  73
1720775296,677:   -120  69  73
1720775296,677:   -572  69  73
1720775296,677:   1941  69  73
1720775296,677:   4009  69  73
1720775296,677:   2758  69  73
1720775296,677:   -283  69  73
1720775296,677:  -1116  69  73
1720775296,677:   1303  69  73
1720775296,677:   3743  69  73
1720775296,677:   3021  69  73
1720775296,677:    213  69  73
1720775296,677:   -782  69  73
1720775296,709:   1423  69  73
1720775296,709:   3853  69  73
1720775296,709:   3185  69  73
1720775296,709:    181  69  73
1720775296,709:  -1210  69  73
1720775296,709:    801  69  73
1720775296,709:   3505  69  73
1720775296,709:   3351  69  73
1720775296,709:    647  69  73
1720775296,709:   -851  69  73
1720775296,709:    930  69  73
1720775296,709:   3568  69  73
1720775296,709:   3449  69  73
1720775296,709:    572  69  73
1720775296,709:  -1305  69  73
1720775296,709:    263  69  73
1720775296,709:   3156  69  73
1720775296,709:   3567  69  73
1720775296,709:   1032  69  73
1720775296,709:   -944  69  73
1720775296,709:    365  69  73
1720775296,709:   3185  69  73
1720775296,740:   3690  69  73
1720775296,740:   1067  69  73
1720775296,740:  -1274  69  73
1720775296,740:   -258  69  73
1720775296,740:   2730  69  73
1720775296,740:   3773  69  73
1720775296,740:   1590  69  73
1720775296,740:   -759  69  73
1720775296,771:    -12  69  73
1720775296,771:   2829  69  73
1720775296,771:   3916  69  73
1720775296,771:   1663  69  73
1720775296,771:  -1033  69  73
1720775296,771:   -624  69  73
1720775296,771:   2312  69  73
1720775296,771:   3918  69  73
1720775296,771:   2169  69  73
1720775296,771:   -453  69  73
1720775296,771:   -301  69  73
1720775296,771:   2432  69  73
1720775296,771:   4038  69  73
1720775296,771:   2236  69  73
1720775296,771:   -719  69  73
1720775296,771:   -970  69  73
1720775296,771:   1732  69  73
1720775296,771:   3775  69  73
1720775296,771:   2506  69  73
1720775296,771:   -258  69  73
1720775296,771:   -664  69  73
1720775296,771:   1886  69  73
1720775296,803:   3962  69  73
1720775296,803:   2693  69  73
1720775296,803:   -373  69  73
1720775296,803:  -1220  69  73
1720775296,803:   1204  69  73
1720775296,803:   3652  69  73
1720775296,803:   2921  69  73
1720775296,803:     89  69  73
1720775296,803:   -916  69  73
1720775296,803:   1308  69  73
1720775296,803:   3760  69  73
1720775296,803:   3080  69  73
1720775296,803:     27  69  73
1720775296,803:  -1405  69  73
1720775296,803:    620  69  73
1720775296,835:   3374  69  73
1720775296,835:   3248  69  73
1720775296,835:    530  69  73
1720775296,835:   -976  69  73
1720775296,835:    875  69  73
1720775296,835:   3656  69  73
1720775296,835:   3660  69  73
1720775296,835:    794  69  73
1720775296,835:  -1211  69  73
1720775296,835:    142  69  73
1720775296,835:   2778  69  73
1720775296,835:   2883  69  73
1720775296,835:    -38  69  73
1720775296,835:  -2437  69  73
1720775296,835:  -1464  69  73
1720775296,866:   1238  69  73
1720775296,866:   1888  69  73
1720775296,866:   -348  69  73
1720775296,866:  -2052  69  73
1720775296,866:    -60  69  73
1720775296,866:   4352  69  73
1720775296,866:   7220  69  73
1720775296,866:   7047  69  73
1720775296,866:   6643  69  73
1720775296,866:   9179  69  73
1720775296,866:  13711  69  73
1720775296,866:  16408  69  73
1720775296,866:  15521  69  73
1720775296,866:  13688  69  73
1720775296,866:  14337  69  73
1720775296,866:  16990  69  73
1720775296,866:  17928  69  73
1720775296,866:  15085  69  73
1720775296,866:  10767  69  73
1720775296,866:   8594  69  73
1720775296,866:   8687  69  73
1720775296,866:   7822  69  73
1720775296,866:   4015  69  73
1720775296,898:   -541  66  70
1720775296,898:  -2195  66  70
1720775296,898:   -747  66  70
1720775296,898:    381  66  70
1720775296,898:  -1260  66  70
1720775296,898:  -3875  66  70
1720775296,898:  -3870  66  70
1720775296,930:   -955  66  70
1720775296,930:   1268  66  70
1720775296,930:    -79  66  70
1720775296,930:  -3360  66  70
1720775296,930:  -4443  66  70
1720775296,930:  -2197  66  70
1720775296,930:    139  66  70
1720775296,930:   -691  66  70
1720775296,930:  -3650  66  70
1720775296,930:  -4778  66  70
1720775296,930:  -2570  66  70
1720775296,930:     32  66  70
1720775296,930:   -395  66  70
1720775296,930:  -3220  66  70
1720775296,930:  -4517  66  70
1720775296,961:  -2423  66  70
1720775296,961:    366  66  70
1720775296,961:    229  66  70
1720775296,961:  -2573  66  70
1720775296,961:  -4189  66  70
1720775296,961:  -2367  66  70
1720775296,961:    519  66  70
1720775296,961:    708  66  70
1720775296,961:  -1990  66  70
1720775296,961:  -3847  66  70
1720775296,961:  -2278  66  70
1720775296,961:    711  66  70
1720775296,961:   1263  66  70
1720775296,961:  -1207  66  70
1720775296,961:  -3213  66  70
1720775296,961:  -1908  66  70
1720775296,961:   1031  66  70
1720775296,961:   1735  66  70
1720775296,961:   -750  66  70
1720775296,961:  -3081  66  70
1720775296,961:  -2112  66  70
1720775296,961:    884  66  70
1720775296,961:   1994  66  70
1720775296,992:   -136  66  70
1720775296,992:  -2487  66  70
1720775296,992:  -1729  66  70
1720775296,992:   1207  66  70
1720775296,992:   2445  66  70
1720775296,992:    293  66  70
1720775296,992:  -2413  66  70
1720775296,992:  -2053  66  70
1720775296,992:    900  66  70
1720775296,992:   2598  66  70
1720775296,992:    920  66  70
1720775296,992:  -1718  66  70
1720775296,992:  -1607  66  70
1720775296,992:   1169  66  70
1720775296,992:   2909  66  70
1720775297,024:   1222  66  70
1720775297,024:  -1727  66  70
1720775297,024:  -2021  66  70
1720775297,024:    715  66  70
1720775297,024:   2890  66  70
1720775297,024:   1725  66  70
1720775297,024:  -1069  66  70
1720775297,024:  -1582  66  70
1720775297,024:    949  66  70
1720775297,024:   3155  66  70
1720775297,024:   2042  66  70
1720775297,024:   -992  66  70
1720775297,024:  -1919  66  70
1720775297,024:    469  66  70
1720775297,024:   3009  66  70
1720775297,054:   2410  66  70
1720775297,054:   -397  66  70
1720775297,054:  -1493  66  70
1720775297,054:    677  66  70
1720775297,054:   3211  66  70
1720775297,054:   2668  66  70
1720775297,054:   -354  66  70
1720775297,054:  -1880  66  70
1720775297,054:     79  66  70
1720775297,054:   2921  66  70
1720775297,054:   2966  66  70
1720775297,054:    311  66  70
1720775297,054:  -1306  66  70
1720775297,054:    397  66  70
1720775297,054:   3146  66  70
1720775297,086:   3226  66  70
1720775297,086:    416  66  70
1720775297,086:  -1585  66  70
1720775297,086:   -141  66  70
1720775297,086:   2805  66  70
1720775297,086:   3390  66  70
1720775297,086:    945  66  70
1720775297,086:  -1104  66  70
1720775297,086:    121  66  70
1720775297,086:   3012  66  70
1720775297,086:   3699  66  70
1720775297,086:   1170  66  70
1720775297,086:  -1264  66  70
1720775297,086:   -397  66  70
1720775297,086:   2580  66  70
1720775297,117:   3754  66  70
1720775297,117:   1680  66  70
1720775297,117:   -706  66  70
1720775297,117:    -58  66  70
1720775297,117:   2781  66  70
1720775297,117:   3988  66  70
1720775297,117:   1839  66  70
1720775297,117:   -886  66  70
1720775297,117:   -574  66  70
1720775297,117:   2352  66  70
1720775297,117:   4066  66  70
1720775297,117:   2412  66  70
1720775297,117:   -241  66  70
1720775297,117:   -181  66  70
1720775297,117:   2565  66  70
1720775297,149:   4323  66  70
1720775297,149:   2660  66  70
1720775297,149:   -318  66  70
1720775297,149:   -699  66  70
1720775297,149:   1952  66  70
1720775297,149:   4095  66  70
1720775297,149:   2931  66  70
1720775297,149:    108  66  70
1720775297,149:   -483  66  70
1720775297,149:   1967  66  70
1720775297,149:   4129  66  70
1720775297,149:   3000  66  70
1720775297,181:    -76  66  70
1720775297,181:  -1088  66  70
1720775297,181:   1224  66  70
1720775297,181:   3748  66  70
1720775297,181:   3174  66  70
1720775297,181:    362  66  70
1720775297,181:   -807  66  70
1720775297,181:   1261  66  70
1720775297,181:   3736  66  70
1720775297,181:   3198  66  70
1720775297,181:    195  66  70
1720775297,181:  -1352  66  70
1720775297,181:    546  66  70
1720775297,181:   3325  66  70
1720775297,181:   3330  66  70
1720775297,181:    648  66  70
1720775297,181:  -1002  66  70
1720775297,181:    669  66  70
1720775297,181:   3408  66  70
1720775297,181:   3495  66  70
1720775297,181:    677  66  70
1720775297,181:  -1365  66  70
1720775297,212:     34  66  70
1720775297,212:   2972  66  70
1720775297,212:   3587  66  70
1720775297,212:   1164  66  70
1720775297,212:   -907  66  70
1720775297,212:    263  66  70
1720775297,212:   3102  66  70
1720775297,212:   3758  66  70
1720775297,212:   1205  66  70
1720775297,212:  -1258  66  70
1720775297,212:   -405  66  70
1720775297,212:   2585  66  70
1720775297,212:   3768  66  70
1720775297,212:   1656  66  70
1720775297,212:   -809  66  70
1720775297,243:   -213  66  70
1720775297,243:   2656  66  70
1720775297,243:   3940  66  70
1720775297,243:   1822  66  70
1720775297,243:   -968  66  70
1720775297,243:   -759  66  70
1720775297,243:   2114  66  70
1720775297,243:   3851  66  70
1720775297,243:   2231  66  70
1720775297,243:   -443  66  70
1720775297,243:   -446  66  70
1720775297,243:   2254  66  70
1720775297,243:   4015  66  70
1720775297,243:   2375  66  70
1720775297,243:   -604  66  70
1720775297,274:   -999  66  70
1720775297,274:   1667  66  70
1720775297,274:   3865  66  70
1720775297,274:   2754  66  70
1720775297,274:    -60  66  70
1720775297,274:   -673  66  70
1720775297,274:   1776  66  70
1720775297,274:   3979  66  70
1720775297,274:   2895  66  70
1720775297,274:   -173  66  70
1720775297,274:  -1204  66  70
1720775297,274:   1105  66  70
1720775297,274:   3658  66  70
1720775297,274:   3113  66  70
1720775297,274:    300  66  70
1720775297,305:   -876  66  70
1720775297,305:   1234  66  70
1720775297,305:   3798  66  70
1720775297,305:   3327  66  70
1720775297,305:    310  66  70
1720775297,305:  -1304  66  70
1720775297,305:    566  66  70
1720775297,305:   3393  66  70
1720775297,337:   3467  66  70
1720775297,337:    795  66  70
1720775297,337:   -897  66  70
1720775297,337:    754  66  70
1720775297,337:   3530  66  70
1720775297,337:   3662  66  70
1720775297,337:    825  66  70
1720775297,337:  -1285  66  70
1720775297,337:     81  66  70
1720775297,337:   3058  66  70
1720775297,337:   3717  66  70
1720775297,337:   1264  66  70
1720775297,337:   -893  66  70
1720775297,337:    243  66  70
1720775297,337:   3161  66  70
1720775297,337:   3934  66  70
1720775297,337:   1414  66  70
1720775297,337:  -1121  66  70
1720775297,337:   -344  66  70
1720775297,337:   2648  66  70
1720775297,337:   3887  66  70
1720775297,337:   1790  66  70
1720775297,367:   -724  66  70
1720775297,367:   -175  66  70
1720775297,367:   2705  66  70
1720775297,367:   4018  66  70
1720775297,367:   1867  66  70
1720775297,367:  -1018  66  70
1720775297,367:   -873  66  70
1720775297,367:   2031  66  70
1720775297,367:   3840  66  70
1720775297,367:   2231  66  70
1720775297,367:   -512  66  70
1720775297,367:   -574  66  70
1720775297,367:   2155  66  70
1720775297,367:   3997  66  70
1720775297,367:   2391  66  70
1720775297,398:   -641  66  70
1720775297,398:  -1111  66  70
1720775297,398:   1537  66  70
1720775297,398:   3762  66  70
1720775297,398:   2654  66  70
1720775297,398:   -205  66  70
1720775297,398:   -852  66  70
1720775297,398:   1628  66  70
1720775297,398:   3900  66  70
1720775297,398:   2846  66  70
1720775297,398:   -257  66  70
1720775297,398:  -1330  66  70
1720775297,398:   1000  66  70
1720775297,398:   3626  66  70
1720775297,398:   3126  66  70
1720775297,430:    288  66  70
1720775297,430:   -940  66  70
1720775297,430:   1154  66  70
1720775297,430:   3747  66  70
1720775297,430:   3298  66  70
1720775297,430:    262  66  70
1720775297,430:  -1382  66  70
1720775297,430:    499  66  70
1720775297,430:   3382  66  70
1720775297,430:   3499  66  70
1720775297,430:    810  66  70
1720775297,430:   -942  66  70
1720775297,430:    673  66  70
1720775297,430:   3471  66  70
1720775297,430:   3644  66  70
1720775297,461:    812  66  70
1720775297,461:  -1336  66  70
1720775297,461:     -2  66  70
1720775297,461:   2995  66  70
1720775297,461:   3715  66  70
1720775297,461:   1302  66  70
1720775297,461:   -876  66  70
1720775297,461:    203  66  70
1720775297,461:   3079  66  70
1720775297,461:   3846  66  70
1720775297,461:   1326  66  70
1720775297,461:  -1236  66  70
1720775297,461:   -499  66  70
1720775297,461:   2500  66  70
1720775297,461:   3810  66  70
1720775297,461:   1799  66  70
1720775297,461:   -689  66  70
1720775297,461:   -184  66  70
1720775297,461:   2650  66  70
1720775297,461:   3983  66  70
1720775297,461:   1912  66  70
1720775297,461:   -906  66  70
1720775297,461:   -760  66  70
1720775297,493:   2101  66  70
1720775297,493:   3888  66  70
1720775297,493:   2302  66  70
1720775297,493:   -412  66  70
1720775297,493:   -481  66  70
1720775297,493:   2222  66  70
1720775297,493:   4065  66  70
1720775297,493:   2498  66  70
1720775297,493:   -499  66  70
1720775297,493:   -979  66  70
1720775297,493:   1632  66  70
1720775297,493:   3852  66  70
1720775297,493:   2796  66  70
1720775297,493:     -5  66  70
1720775297,493:   -657  66  70
1720775297,525:   1751  66  70
1720775297,525:   3951  66  70
1720775297,525:   2888  66  70
1720775297,525:   -177  66  70
1720775297,525:  -1223  66  70
1720775297,525:   1087  66  70
1720775297,525:   3671  66  70
1720775297,525:   3152  66  70
1720775297,525:    326  66  70
1720775297,525:   -892  66  70
1720775297,525:   1194  66  70
1720775297,525:   3775  66  70
1720775297,525:   3327  66  70
1720775297,525:    300  66  70
1720775297,525:  -1346  66  70
1720775297,525:    516  66  70
1720775297,525:   3377  66  70
1720775297,525:   3484  66  70
1720775297,525:    793  66  70
1720775297,525:   -963  66  70
1720775297,525:    652  66  70
1720775297,525:   3461  66  70
1720775297,556:   3651  66  70
1720775297,556:    829  66  70
1720775297,556:  -1324  66  70
1720775297,556:      7  66  70
1720775297,556:   3017  66  70
1720775297,556:   3761  66  70
1720775297,556:   1363  66  70
1720775297,556:   -816  66  70
1720775297,587:    256  66  70
1720775297,587:   3135  66  70
1720775297,587:   3913  66  70
1720775297,587:   1401  66  70
1720775297,587:  -1165  66  70
1720775297,587:   -434  66  70
1720775297,587:   2559  66  70
1720775297,587:   3857  66  70
1720775297,587:   1819  66  70
1720775297,587:   -699  66  70
1720775297,587:   -200  66  70
1720775297,587:   2661  66  70
1720775297,587:   4029  66  70
1720775297,587:   1964  66  70
1720775297,587:   -888  66  70
1720775297,619:   -779  66  70
1720775297,619:   2082  66  70
1720775297,619:   3895  66  70
1720775297,619:   2322  66  70
1720775297,619:   -416  66  70
1720775297,619:   -516  66  70
1720775297,619:   2183  66  70
1720775297,619:   4039  66  70
1720775297,619:   2461  66  70
1720775297,619:   -583  66  70
1720775297,619:  -1095  66  70
1720775297,619:   1549  66  70
1720775297,619:   3838  66  70
1720775297,619:   2808  66  70
1720775297,619:    -43  66  70
1720775297,651:   -758  66  70
1720775297,651:   1661  66  70
1720775297,651:   3947  66  70
1720775297,651:   2955  66  70
1720775297,651:   -128  66  70
1720775297,651:  -1249  66  70
1720775297,651:   1023  66  70
1720775297,651:   3641  66  70
1720775297,651:   3176  66  70
1720775297,651:    349  66  70
1720775297,651:   -919  66  70
1720775297,651:   1137  66  70
1720775297,651:   3740  66  70
1720775297,651:   3330  66  70
1720775297,651:    294  66  70
1720775297,651:  -1407  66  70
1720775297,651:    422  66  70
1720775297,651:   3315  66  70
1720775297,651:   3482  66  70
1720775297,651:    810  66  70
1720775297,651:   -981  66  70
1720775297,651:    598  66  70
1720775297,683:   3419  66  70
1720775297,683:   3657  66  70
1720775297,683:    859  66  70
1720775297,683:  -1320  66  70
1720775297,683:    -32  66  70
1720775297,683:   2960  66  70
1720775297,683:   3702  66  70
1720775297,683:   1284  66  70
1720775297,683:   -935  66  70
1720775297,683:    126  66  70
1720775297,683:   3052  66  70
1720775297,683:   3902  66  70
1720775297,683:   1424  66  70
1720775297,683:  -1163  66  70
1720775297,683:   -453  66  70
1720775297,714:   2569  66  70
1720775297,714:   3927  66  70
1720775297,714:   1916  66  70
1720775297,714:   -637  66  70
1720775297,714:   -191  66  70
1720775297,714:   2649  66  70
1720775297,714:   4025  66  70
1720775297,714:   1955  66  70
1720775297,714:   -929  66  70
1720775297,714:   -842  66  70
1720775297,714:   2043  66  70
1720775297,714:   3905  66  70
1720775297,714:   2344  66  70
1720775297,714:   -434  66  70
1720775297,714:   -577  66  70
1720775297,745:   2134  66  70
1720775297,745:   4047  66  70
1720775297,745:   2502  66  70
1720775297,745:   -572  66  70
1720775297,745:  -1141  66  70
1720775297,745:   1479  66  70
1720775297,745:   3787  66  70
1720775297,745:   2770  66  70
1720775297,745:   -114  66  70
1720775297,745:   -877  66  70
1720775297,745:   1538  66  70
1720775297,745:   3861  66  70
1720775297,745:   2882  66  70
1720775297,745:   -247  66  70
1720775297,745:  -1425  66  70
1720775297,777:    866  66  70
1720775297,777:   3594  66  70
1720775297,777:   3249  66  70
1720775297,777:    475  66  70
1720775297,777:   -802  66  70
1720775297,777:   1237  66  70
1720775297,777:   3809  66  70
1720775297,777:   3280  66  70
1720775297,777:    -13  66  70
1720775297,777:  -2079  66  70
1720775297,777:   -645  66  70
1720775297,777:   1883  66  70
1720775297,777:   1750  66  70
1720775297,777:  -1089  66  70
1720775297,777:  -2797  66  70
1720775297,807:   -789  66  70
1720775297,807:   2810  66  70
1720775297,807:   4115  66  70
1720775297,807:   2655  66  70
1720775297,807:   2110  66  70
1720775297,807:   5294  66  70
1720775297,807:  10279  66  70
1720775297,807:  12903  66  70
1720775297,807:  12164  66  70
1720775297,807:  11451  66  70
1720775297,807:  13843  66  70
1720775297,807:  17770  66  70
1720775297,807:  19061  66  70
1720775297,807:  16377  66  70
1720775297,807:  13036  66  70
1720775297,839:  12548  65  68
1720775297,839:  13889  65  68
1720775297,839:  12997  65  68
1720775297,839:   8311  65  68
1720775297,839:   3088  65  68
1720775297,839:   1302  65  68
1720775297,839:   2461  65  68
1720775297,839:   2497  65  68
1720775297,839:   -755  65  68
1720775297,839:  -4562  65  68
1720775297,839:  -4880  65  68
1720775297,839:  -1803  65  68
1720775297,839:    579  65  68
1720775297,839:   -537  65  68
1720775297,839:  -3184  65  68
1720775297,871:  -3469  65  68
1720775297,871:   -994  65  68
1720775297,871:    703  65  68
1720775297,871:  -1034  65  68
1720775297,871:  -4311  65  68
1720775297,871:  -5082  65  68
1720775297,871:  -2594  65  68
1720775297,871:   -292  65  68
1720775297,871:  -1184  65  68
1720775297,871:  -3864  65  68
1720775297,871:  -4421  65  68
1720775297,871:  -1839  65  68
1720775297,871:    617  65  68
1720775297,871:   -256  65  68
1720775297,871:  -3339  65  68
1720775297,871:  -4565  65  68
1720775297,871:  -2393  65  68
1720775297,871:    242  65  68
1720775297,871:    -82  65  68
1720775297,871:  -2721  65  68
1720775297,871:  -3819  65  68
1720775297,871:  -1614  65  68
1720775297,871:   1143  65  68
1720775297,902:    865  65  68
1720775297,902:  -2115  65  68
1720775297,902:  -3847  65  68
1720775297,902:  -2067  65  68
1720775297,902:    849  65  68
1720775297,902:   1132  65  68
1720775297,902:  -1382  65  68
1720775297,933:  -3047  65  68
1720775297,933:  -1395  65  68
1720775297,933:   1472  65  68
1720775297,933:   1756  65  68
1720775297,933:   -998  65  68
1720775297,933:  -3144  65  68
1720775297,933:  -1820  65  68
1720775297,933:   1230  65  68
1720775297,933:   2057  65  68
1720775297,933:   -272  65  68
1720775297,933:  -2428  65  68
1720775297,933:  -1332  65  68
1720775297,933:   1628  65  68
1720775297,933:   2526  65  68
1720775297,933:    100  65  68
1720775297,965:  -2455  65  68
1720775297,965:  -1739  65  68
1720775297,965:   1287  65  68
1720775297,965:   2668  65  68
1720775297,965:    695  65  68
1720775297,965:  -1822  65  68
1720775297,965:  -1343  65  68
1720775297,965:   1550  65  68
1720775297,965:   3003  65  68
1720775297,965:   1005  65  68
1720775297,965:  -1851  65  68
1720775297,965:  -1771  65  68
1720775297,965:   1118  65  68
1720775297,965:   3027  65  68
1720775297,965:   1541  65  68
1720775297,965:  -1187  65  68
1720775297,965:  -1325  65  68
1720775297,965:   1379  65  68
1720775297,965:   3308  65  68
1720775297,965:   1803  65  68
1720775297,965:  -1243  65  68
1720775297,965:  -1815  65  68
1720775297,965:    796  65  68
1720775297,997:   3116  65  68
1720775297,997:   2133  65  68
1720775297,997:   -715  65  68
1720775297,997:  -1452  65  68
1720775297,997:    992  65  68
1720775297,997:   3358  65  68
1720775297,997:   2430  65  68
1720775297,997:   -671  65  68
1720775297,997:  -1854  65  68
1720775297,997:    411  65  68
1720775297,997:   3110  65  68
1720775297,997:   2735  65  68
1720775297,997:    -79  65  68
1720775297,997:  -1389  65  68
1720775297,997:    667  65  68
1720775298,027:   3357  65  68
1720775298,027:   3053  65  68
1720775298,027:     52  65  68
1720775298,027:  -1686  65  68
1720775298,027:    121  65  68
1720775298,027:   3059  65  68
1720775298,027:   3293  65  68
1720775298,027:    638  65  68
1720775298,027:  -1188  65  68
1720775298,027:    382  65  68
1720775298,027:   3270  65  68
1720775298,027:   3601  65  68
1720775298,027:    837  65  68
1720775298,027:  -1379  65  68
1720775298,027:   -118  65  68
1720775298,058:   2922  65  68
1720775298,058:   3759  65  68
1720775298,058:   1395  65  68
1720775298,058:   -853  65  68
1720775298,058:    160  65  68
1720775298,058:   3101  65  68
1720775298,058:   4027  65  68
1720775298,058:   1605  65  68
1720775298,058:   -998  65  68
1720775298,058:   -328  65  68
1720775298,058:   2717  65  68
1720775298,058:   4166  65  68
1720775298,058:   2232  65  68
1720775298,058:   -333  65  68
1720775298,058:     52  65  68
1720775298,090:   2883  65  68
1720775298,090:   4328  65  68
1720775298,090:   2326  65  68
1720775298,090:   -589  65  68
1720775298,090:   -605  65  68
1720775298,090:   2214  65  68
1720775298,090:   4103  65  68
1720775298,090:   2600  65  68
1720775298,090:   -198  65  68
1720775298,090:   -442  65  68
1720775298,090:   2187  65  68
1720775298,090:   4106  65  68
1720775298,090:   2611  65  68
1720775298,090:   -471  65  68
1720775298,090:  -1122  65  68
1720775298,122:   1431  65  68
1720775298,122:   3760  65  68
1720775298,122:   2813  65  68
1720775298,122:    -50  65  68
1720775298,122:   -875  65  68
1720775298,122:   1472  65  68
1720775298,122:   3801  65  68
1720775298,122:   2890  65  68
1720775298,122:   -211  65  68
1720775298,122:  -1444  65  68
1720775298,122:    766  65  68
1720775298,122:   3460  65  68
1720775298,122:   3114  65  68
1720775298,122:    293  65  68
1720775298,122:  -1101  65  68
1720775298,122:    860  65  68
1720775298,122:   3527  65  68
1720775298,122:   3273  65  68
1720775298,122:    309  65  68
1720775298,122:  -1467  65  68
1720775298,122:    267  65  68
1720775298,122:   3180  65  68
1720775298,153:   3450  65  68
1720775298,153:    816  65  68
1720775298,153:  -1065  65  68
1720775298,153:    412  65  68
1720775298,153:   3252  65  68
1720775298,153:   3594  65  68
1720775298,153:    835  65  68
1720775298,153:  -1437  65  68
1720775298,153:   -248  65  68
1720775298,153:   2791  65  68
1720775298,153:   3702  65  68
1720775298,153:   1392  65  68
1720775298,153:   -898  65  68
1720775298,185:      9  65  68
1720775298,185:   2882  65  68
1720775298,185:   3816  65  68
1720775298,185:   1419  65  68
1720775298,185:  -1220  65  68
1720775298,185:   -637  65  68
1720775298,185:   2338  65  68
1720775298,185:   3773  65  68
1720775298,185:   1845  65  68
1720775298,185:   -736  65  68
1720775298,185:   -380  65  68
1720775298,185:   2463  65  68
1720775298,185:   3971  65  68
1720775298,185:   2029  65  68
1720775298,185:   -884  65  68
1720775298,185:   -942  65  68
1720775298,185:   1866  65  68
1720775298,185:   3813  65  68
1720775298,185:   2396  65  68
1720775298,185:   -354  65  68
1720775298,185:   -605  65  68
1720775298,185:   2013  65  68
1720775298,216:   3960  65  68
1720775298,216:   2524  65  68
1720775298,216:   -518  65  68
1720775298,216:  -1168  65  68
1720775298,216:   1385  65  68
1720775298,216:   3743  65  68
1720775298,216:   2834  65  68
1720775298,216:    -27  65  68
1720775298,247:   -881  65  68
1720775298,247:   1468  65  68
1720775298,247:   3860  65  68
1720775298,247:   3025  65  68
1720775298,247:    -62  65  68
1720775298,247:  -1353  65  68
1720775298,247:    805  65  68
1720775298,247:   3517  65  68
1720775298,247:   3237  65  68
1720775298,247:    445  65  68
1720775298,247:   -983  65  68
1720775298,247:    935  65  68
1720775298,247:   3611  65  68
1720775298,247:   3394  65  68
1720775298,247:    426  65  68
1720775298,278:  -1410  65  68
1720775298,278:    277  65  68
1720775298,278:   3224  65  68
1720775298,278:   3581  65  68
1720775298,278:    996  65  68
1720775298,278:   -916  65  68
1720775298,278:    505  65  68
1720775298,278:   3337  65  68
1720775298,278:   3726  65  68
1720775298,278:    998  65  68
1720775298,278:  -1308  65  68
1720775298,278:   -186  65  68
1720775298,278:   2815  65  68
1720775298,278:   3731  65  68
1720775298,278:   1430  65  68
1720775298,310:   -874  65  68
1720775298,310:     29  65  68
1720775298,310:   2947  65  68
1720775298,310:   3949  65  68
1720775298,310:   1575  65  68
1720775298,310:  -1110  65  68
1720775298,310:   -591  65  68
1720775298,310:   2372  65  68
1720775298,310:   3845  65  68
1720775298,310:   1940  65  68
1720775298,310:   -671  65  68
1720775298,310:   -356  65  68
1720775298,310:   2487  65  68
1720775298,310:   4026  65  68
1720775298,310:   2090  65  68
1720775298,310:   -861  65  68
1720775298,310:   -947  65  68
1720775298,310:   1886  65  68
1720775298,310:   3877  65  68
1720775298,310:   2446  65  68
1720775298,310:   -386  65  68
1720775298,310:   -704  65  68
1720775298,342:   1940  65  68
1720775298,342:   3975  65  68
1720775298,342:   2586  65  68
1720775298,342:   -499  65  68
1720775298,342:  -1221  65  68
1720775298,342:   1312  65  68
1720775298,342:   3711  65  68
1720775298,342:   2835  65  68
1720775298,372:    -43  65  68
1720775298,372:   -935  65  68
1720775298,372:   1407  65  68
1720775298,372:   3825  65  68
1720775298,372:   3000  65  68
1720775298,372:   -115  65  68
1720775298,372:  -1440  65  68
1720775298,372:    728  65  68
1720775298,372:   3493  65  68
1720775298,372:   3254  65  68
1720775298,372:    454  65  68
1720775298,372:  -1009  65  68
1720775298,372:    901  65  68
1720775298,372:   3606  65  68
1720775298,372:   3423  65  68
1720775298,372:    450  65  68
1720775298,372:  -1427  65  68
1720775298,372:    225  65  68
1720775298,372:   3160  65  68
1720775298,372:   3515  65  68
1720775298,372:    912  65  68
1720775298,372:  -1023  65  68
1720775298,404:    407  65  68
1720775298,404:   3291  65  68
1720775298,404:   3729  65  68
1720775298,404:   1001  65  68
1720775298,404:  -1345  65  68
1720775298,404:   -243  65  68
1720775298,404:   2791  65  68
1720775298,404:   3757  65  68
1720775298,404:   1466  65  68
1720775298,404:   -879  65  68
1720775298,404:    -12  65  68
1720775298,404:   2918  65  68
1720775298,404:   3963  65  68
1720775298,404:   1602  65  68
1720775298,404:  -1122  65  68
1720775298,404:   -642  65  68
1720775298,404:   2340  65  68
1720775298,404:   3873  65  68
1720775298,404:   1998  65  68
1720775298,404:   -653  65  68
1720775298,404:   -406  65  68
1720775298,404:   2424  65  68
1720775298,404:   4020  65  68
1720775298,435:   2143  65  68
1720775298,435:   -813  65  68
1720775298,435:   -950  65  68
1720775298,435:   1859  65  68
1720775298,435:   3889  65  68
1720775298,435:   2514  65  68
1720775298,435:   -314  65  68
1720775298,466:   -675  65  68
1720775298,466:   1944  65  68
1720775298,466:   4010  65  68
1720775298,466:   2666  65  68
1720775298,466:   -429  65  68
1720775298,466:  -1209  65  68
1720775298,466:   1297  65  68
1720775298,466:   3748  65  68
1720775298,466:   2959  65  68
1720775298,466:    108  65  68
1720775298,466:   -841  65  68
1720775298,466:   1430  65  68
1720775298,466:   3843  65  68
1720775298,466:   3073  65  68
1720775298,466:     -5  65  68
1720775298,497:  -1356  65  68
1720775298,497:    754  65  68
1720775298,497:   3489  65  68
1720775298,497:   3261  65  68
1720775298,497:    473  65  68
1720775298,497:  -1001  65  68
1720775298,497:    899  65  68
1720775298,497:   3626  65  68
1720775298,497:   3480  65  68
1720775298,497:    514  65  68
1720775298,497:  -1394  65  68
1720775298,497:    237  65  68
1720775298,497:   3203  65  68
1720775298,497:   3609  65  68
1720775298,497:   1017  65  68
1720775298,529:   -964  65  68
1720775298,529:    419  65  68
1720775298,529:   3305  65  68
1720775298,529:   3782  65  68
1720775298,529:   1065  65  68
1720775298,529:  -1321  65  68
1720775298,529:   -258  65  68
1720775298,529:   2792  65  68
1720775298,529:   3809  65  68
1720775298,529:   1531  65  68
1720775298,529:   -867  65  68
1720775298,529:    -59  65  68
1720775298,529:   2875  65  68
1720775298,529:   3975  65  68
1720775298,529:   1649  65  68
1720775298,529:  -1103  65  68
1720775298,529:   -667  65  68
1720775298,529:   2321  65  68
1720775298,529:   3907  65  68
1720775298,529:   2065  65  68
1720775298,529:   -616  65  68
1720775298,529:   -413  65  68
1720775298,529:   2421  65  68
1720775298,561:   4065  65  68
1720775298,561:   2206  65  68
1720775298,561:   -806  65  68
1720775298,561:  -1019  65  68
1720775298,561:   1789  65  68
1720775298,561:   3900  65  68
1720775298,561:   2601  65  68
1720775298,561:   -231  65  68
1720775298,561:   -655  65  68
1720775298,561:   1930  65  68
1720775298,561:   4031  65  68
1720775298,561:   2736  65  68
1720775298,561:   -362  65  68
1720775298,561:  -1189  65  68
1720775298,561:   1290  65  68
1720775298,593:   3758  65  68
1720775298,593:   2985  65  68
1720775298,593:    106  65  68
1720775298,593:   -883  65  68
1720775298,593:   1410  65  68
1720775298,593:   3912  65  68
1720775298,593:   3215  65  68
1720775298,593:    115  65  68
1720775298,593:  -1326  65  68
1720775298,593:    737  65  68
1720775298,593:   3525  65  68
1720775298,593:   3385  65  68
1720775298,593:    617  65  68
1720775298,593:   -924  65  68
1720775298,593:    904  65  68
1720775298,625:   3628  65  68
1720775298,625:   3529  65  68
1720775298,625:    588  65  68
1720775298,625:  -1351  65  68
1720775298,625:    241  65  68
1720775298,625:   3214  65  68
1720775298,625:   3652  65  68
1720775298,625:   1058  65  68
1720775298,625:   -978  65  68
1720775298,625:    360  65  68
1720775298,625:   3277  65  68
1720775298,625:   3836  65  68
1720775298,625:   1168  65  68
1720775298,625:  -1247  65  68
1720775298,625:   -244  65  68
1720775298,625:   2798  65  68
1720775298,625:   3867  65  68
1720775298,625:   1629  65  68
1720775298,625:   -799  65  68
1720775298,625:    -59  65  68
1720775298,625:   2854  65  68
1720775298,625:   4003  65  68
1720775298,657:   1727  65  68
1720775298,657:  -1040  65  68
1720775298,657:   -657  65  68
1720775298,657:   2330  65  68
1720775298,657:   3999  65  68
1720775298,657:   2245  65  68
1720775298,657:   -435  65  68
1720775298,657:   -316  65  68
1720775298,688:   2450  65  68
1720775298,688:   4105  65  68
1720775298,688:   2300  65  68
1720775298,688:   -705  65  68
1720775298,688:   -982  65  68
1720775298,688:   1757  65  68
1720775298,688:   3859  65  68
1720775298,688:   2591  65  68
1720775298,688:   -238  65  68
1720775298,688:   -705  65  68
1720775298,688:   1855  65  68
1720775298,688:   3988  65  68
1720775298,688:   2748  65  68
1720775298,688:   -348  65  68
1720775298,688:  -1238  65  68
1720775298,720:   1192  65  68
1720775298,720:   3687  65  68
1720775298,720:   2985  65  68
1720775298,720:    129  65  68
1720775298,720:   -923  65  68
1720775298,720:   1287  65  68
1720775298,720:   3767  65  68
1720775298,720:   3108  65  68
1720775298,720:     37  65  68
1720775298,720:  -1423  65  68
1720775298,720:    615  65  68
1720775298,720:   3431  65  68
1720775298,720:   3364  65  68
1720775298,720:    656  65  68
1720775298,720:   -868  65  68
1720775298,720:    971  65  68
1720775298,720:   3723  65  68
1720775298,720:   3603  65  68
1720775298,720:    496  65  68
1720775298,720:  -1767  65  68
1720775298,720:   -570  65  68
1720775298,720:   2036  65  68
1720775298,751:   2179  65  68
1720775298,751:   -637  65  68
1720775298,751:  -2772  65  68
1720775298,751:  -1296  65  68
1720775298,751:   2088  65  68
1720775298,751:   3454  65  68
1720775298,751:   1908  65  68
1720775298,751:    928  65  68
1720775298,751:   3682  65  68
1720775298,751:   8686  65  68
1720775298,751:  11722  65  68
1720775298,751:  11292  65  68
1720775298,751:  10495  65  68
1720775298,751:  12730  65  68
1720775298,751:  16924  65  68
1720775298,782:  18914  63  66
1720775298,782:  16856  63  66
1720775298,782:  13699  63  66
1720775298,782:  13218  63  66
1720775298,782:  14891  63  66
1720775298,782:  14684  63  66
1720775298,782:  10487  63  66
1720775298,782:   5092  63  66
1720775298,782:   2704  63  66
1720775298,782:   3464  63  66
1720775298,782:   3551  63  66
1720775298,782:    393  63  66
1720775298,782:  -3777  63  66
1720775298,782:  -4819  63  66
1720775298,782:  -2254  63  66
1720775298,814:    165  63  66
1720775298,814:   -627  63  66
1720775298,814:  -3130  63  66
1720775298,814:  -3524  63  66
1720775298,814:  -1084  63  66
1720775298,814:    840  63  66
1720775298,814:   -634  63  66
1720775298,814:  -3956  63  66
1720775298,814:  -5031  63  66
1720775298,814:  -2732  63  66
1720775298,814:   -320  63  66
1720775298,814:  -1048  63  66
1720775298,814:  -3840  63  66
1720775298,814:  -4720  63  66
1720775298,814:  -2269  63  66
1720775298,845:    439  63  66
1720775298,845:    -65  63  66
1720775298,845:  -3074  63  66
1720775298,845:  -4546  63  66
1720775298,845:  -2569  63  66
1720775298,845:    168  63  66
1720775298,845:     60  63  66
1720775298,845:  -2606  63  66
1720775298,845:  -4001  63  66
1720775298,845:  -1992  63  66
1720775298,845:    923  63  66
1720775298,845:    972  63  66
1720775298,845:  -1920  63  66
1720775298,845:  -3894  63  66
1720775298,845:  -2336  63  66
1720775298,875:    676  63  66
1720775298,875:   1238  63  66
1720775298,875:  -1207  63  66
1720775298,875:  -3126  63  66
1720775298,875:  -1707  63  66
1720775298,875:   1272  63  66
1720775298,875:   1885  63  66
1720775298,875:   -740  63  66
1720775298,875:  -3133  63  66
1720775298,875:  -2109  63  66
1720775298,875:    964  63  66
1720775298,875:   2080  63  66
1720775298,875:    -94  63  66
1720775298,875:  -2443  63  66
1720775298,875:  -1612  63  66
1720775298,906:   1383  63  66
1720775298,906:   2580  63  66
1720775298,906:    324  63  66
1720775298,906:  -2429  63  66
1720775298,906:  -2013  63  66
1720775298,906:   1011  63  66
1720775298,906:   2686  63  66
1720775298,906:    914  63  66
1720775298,906:  -1768  63  66
1720775298,906:  -1588  63  66
1720775298,906:   1282  63  66
1720775298,906:   3022  63  66
1720775298,906:   1246  63  66
1720775298,906:  -1761  63  66
1720775298,906:  -2007  63  66
1720775298,937:    809  63  66
1720775298,937:   2979  63  66
1720775298,937:   1726  63  66
1720775298,937:  -1121  63  66
1720775298,937:  -1572  63  66
1720775298,937:   1057  63  66
1720775298,937:   3260  63  66
1720775298,937:   2035  63  66
1720775298,937:  -1093  63  66
1720775298,937:  -1988  63  66
1720775298,937:    501  63  66
1720775298,937:   3071  63  66
1720775298,937:   2392  63  66
1720775298,937:   -491  63  66
1720775298,937:  -1546  63  66
1720775298,968:    734  63  66
1720775298,968:   3304  63  66
1720775298,968:   2675  63  66
1720775298,968:   -441  63  66
1720775298,968:  -1940  63  66
1720775298,968:    139  63  66
1720775298,968:   3038  63  66
1720775298,968:   2997  63  66
1720775298,968:    216  63  66
1720775298,968:  -1406  63  66
1720775298,968:    412  63  66
1720775298,968:   3244  63  66
1720775298,968:   3264  63  66
1720775298,968:    325  63  66
1720775298,968:  -1711  63  66
1720775298,968:   -170  63  66
1720775298,968:   2870  63  66
1720775298,968:   3422  63  66
1720775298,968:    864  63  66
1720775298,968:  -1221  63  66
1720775298,968:     97  63  66
1720775298,968:   3087  63  66
1720775298,968:   3746  63  66
1720775299,000:   1095  63  66
1720775299,000:  -1395  63  66
1720775299,000:   -442  63  66
1720775299,000:   2654  63  66
1720775299,000:   3831  63  66
1720775299,000:   1645  63  66
1720775299,000:   -808  63  66
1720775299,000:    -82  63  66
1720775299,000:   2889  63  66
1720775299,000:   4122  63  66
1720775299,000:   1870  63  66
1720775299,000:   -943  63  66
1720775299,000:   -582  63  66
1720775299,000:   2467  63  66
1720775299,000:   4215  63  66
1720775299,031:   2460  63  66
1720775299,031:   -294  63  66
1720775299,031:   -199  63  66
1720775299,031:   2673  63  66
1720775299,031:   4483  63  66
1720775299,031:   2731  63  66
1720775299,031:   -360  63  66
1720775299,063:   -730  63  66
1720775299,063:   2034  63  66
1720775299,063:   4231  63  66
1720775299,063:   2983  63  66
1720775299,063:     41  63  66
1720775299,063:   -549  63  66
1720775299,063:   2011  63  66
1720775299,063:   4236  63  66
1720775299,063:   3024  63  66
1720775299,063:   -183  63  66
1720775299,063:  -1205  63  66
1720775299,063:   1228  63  66
1720775299,063:   3850  63  66
1720775299,063:   3232  63  66
1720775299,063:    304  63  66
1720775299,063:   -891  63  66
1720775299,063:   1275  63  66
1720775299,063:   3836  63  66
1720775299,063:   3247  63  66
1720775299,063:    115  63  66
1720775299,063:  -1480  63  66
1720775299,063:    503  63  66
1720775299,063:   3380  63  66
1720775299,094:   3363  63  66
1720775299,094:    571  63  66
1720775299,094:  -1122  63  66
1720775299,094:    640  63  66
1720775299,094:   3491  63  66
1720775299,094:   3570  63  66
1720775299,094:    636  63  66
1720775299,094:  -1476  63  66
1720775299,094:    -17  63  66
1720775299,094:   3028  63  66
1720775299,094:   3653  63  66
1720775299,094:   1132  63  66
1720775299,094:  -1016  63  66
1720775299,094:    195  63  66
1720775299,094:   3136  63  66
1720775299,126:   3824  63  66
1720775299,126:   1206  63  66
1720775299,126:  -1317  63  66
1720775299,126:   -427  63  66
1720775299,126:   2656  63  66
1720775299,126:   3886  63  66
1720775299,126:   1739  63  66
1720775299,126:   -770  63  66
1720775299,126:   -163  63  66
1720775299,126:   2742  63  66
1720775299,126:   4018  63  66
1720775299,126:   1845  63  66
1720775299,126:   -970  63  66
1720775299,126:   -715  63  66
1720775299,126:   2218  63  66
1720775299,156:   3945  63  66
1720775299,156:   2249  63  66
1720775299,156:   -481  63  66
1720775299,156:   -465  63  66
1720775299,156:   2283  63  66
1720775299,156:   4035  63  66
1720775299,156:   2323  63  66
1720775299,156:   -707  63  66
1720775299,156:  -1069  63  66
1720775299,156:   1674  63  66
1720775299,156:   3903  63  66
1720775299,156:   2758  63  66
1720775299,156:    -91  63  66
1720775299,156:   -682  63  66
1720775299,156:   1809  63  66
1720775299,156:   4009  63  66
1720775299,156:   2872  63  66
1720775299,156:   -234  63  66
1720775299,156:  -1236  63  66
1720775299,188:   1127  63  66
1720775299,188:   3686  63  66
1720775299,188:   3087  63  66
1720775299,188:    227  63  66
1720775299,188:   -936  63  66
1720775299,188:   1213  63  66
1720775299,188:   3777  63  66
1720775299,188:   3261  63  66
1720775299,188:    218  63  66
1720775299,188:  -1354  63  66
1720775299,188:    582  63  66
1720775299,188:   3427  63  66
1720775299,188:   3454  63  66
1720775299,188:    735  63  66
1720775299,188:   -953  63  66
1720775299,219:    730  63  66
1720775299,219:   3503  63  66
1720775299,219:   3585  63  66
1720775299,219:    706  63  66
1720775299,219:  -1388  63  66
1720775299,219:     25  63  66
1720775299,219:   3028  63  66
1720775299,219:   3678  63  66
1720775299,219:   1220  63  66
1720775299,219:   -915  63  66
1720775299,219:    236  63  66
1720775299,219:   3121  63  66
1720775299,219:   3829  63  66
1720775299,219:   1282  63  66
1720775299,219:  -1209  63  66
1720775299,251:   -372  63  66
1720775299,251:   2629  63  66
1720775299,251:   3824  63  66
1720775299,251:   1701  63  66
1720775299,251:   -781  63  66
1720775299,251:   -182  63  66
1720775299,251:   2702  63  66
1720775299,251:   3976  63  66
1720775299,251:   1815  63  66
1720775299,251:  -1012  63  66
1720775299,251:   -795  63  66
1720775299,251:   2116  63  66
1720775299,251:   3870  63  66
1720775299,251:   2222  63  66
1720775299,251:   -490  63  66
1720775299,282:   -503  63  66
1720775299,282:   2211  63  66
1720775299,282:   3971  63  66
1720775299,282:   2298  63  66
1720775299,282:   -713  63  66
1720775299,282:  -1111  63  66
1720775299,282:   1568  63  66
1720775299,282:   3756  63  66
1720775299,282:   2610  63  66
1720775299,282:   -222  63  66
1720775299,282:   -803  63  66
1720775299,282:   1698  63  66
1720775299,282:   3919  63  66
1720775299,282:   2806  63  66
1720775299,282:   -292  63  66
1720775299,313:  -1305  63  66
1720775299,313:   1060  63  66
1720775299,313:   3655  63  66
1720775299,313:   3103  63  66
1720775299,313:    263  63  66
1720775299,313:   -917  63  66
1720775299,313:   1211  63  66
1720775299,313:   3775  63  66
1720775299,313:   3265  63  66
1720775299,313:    203  63  66
1720775299,313:  -1412  63  66
1720775299,313:    501  63  66
1720775299,313:   3369  63  66
1720775299,313:   3437  63  66
1720775299,313:    727  63  66
1720775299,344:   -989  63  66
1720775299,344:    680  63  66
1720775299,344:   3493  63  66
1720775299,344:   3639  63  66
1720775299,344:    787  63  66
1720775299,344:  -1340  63  66
1720775299,344:     21  63  66
1720775299,344:   3000  63  66
1720775299,344:   3655  63  66
1720775299,344:   1192  63  66
1720775299,344:   -969  63  66
1720775299,344:    165  63  66
1720775299,344:   3067  63  66
1720775299,344:   3806  63  66
1720775299,344:   1255  63  66
1720775299,375:  -1280  63  66
1720775299,375:   -475  63  66
1720775299,375:   2558  63  66
1720775299,375:   3829  63  66
1720775299,375:   1755  63  66
1720775299,375:   -744  63  66
1720775299,375:   -195  63  66
1720775299,375:   2667  63  66
1720775299,375:   3960  63  66
1720775299,375:   1819  63  66
1720775299,375:  -1018  63  66
1720775299,375:   -827  63  66
1720775299,375:   2074  63  66
1720775299,375:   3831  63  66
1720775299,375:   2176  63  66
1720775299,406:   -561  63  66
1720775299,406:   -578  63  66
1720775299,406:   2186  63  66
1720775299,406:   4019  63  66
1720775299,406:   2380  63  66
1720775299,406:   -667  63  66
1720775299,406:  -1122  63  66
1720775299,406:   1547  63  66
1720775299,406:   3784  63  66
1720775299,406:   2688  63  66
1720775299,406:   -149  63  66
1720775299,406:   -782  63  66
1720775299,406:   1678  63  66
1720775299,406:   3905  63  66
1720775299,406:   2827  63  66
1720775299,406:   -255  63  66
1720775299,406:  -1283  63  66
1720775299,406:   1058  63  66
1720775299,406:   3643  63  66
1720775299,406:   3090  63  66
1720775299,406:    236  63  66
1720775299,406:   -972  63  66
1720775299,406:   1140  63  66
1720775299,437:   3726  63  66
1720775299,437:   3263  63  66
1720775299,437:    235  63  66
1720775299,437:  -1385  63  66
1720775299,437:    502  63  66
1720775299,437:   3356  63  66
1720775299,437:   3444  63  66
1720775299,437:    769  63  66
1720775299,437:   -930  63  66
1720775299,437:    723  63  66
1720775299,437:   3501  63  66
1720775299,437:   3619  63  66
1720775299,437:    758  63  66
1720775299,437:  -1362  63  66
1720775299,437:     21  63  66
1720775299,467:   3030  63  66
1720775299,467:   3716  63  66
1720775299,467:   1273  63  66
1720775299,467:   -890  63  66
1720775299,467:    234  63  66
1720775299,467:   3131  63  66
1720775299,467:   3877  63  66
1720775299,498:   1333  63  66
1720775299,498:  -1210  63  66
1720775299,498:   -426  63  66
1720775299,498:   2583  63  66
1720775299,498:   3838  63  66
1720775299,498:   1758  63  66
1720775299,498:   -732  63  66
1720775299,498:   -147  63  66
1720775299,498:   2775  63  66
1720775299,498:   4128  63  66
1720775299,498:   2014  63  66
1720775299,498:   -835  63  66
1720775299,498:   -669  63  66
1720775299,498:   2224  63  66
1720775299,498:   3984  63  66
1720775299,498:   2318  63  66
1720775299,498:   -458  63  66
1720775299,498:   -523  63  66
1720775299,498:   2200  63  66
1720775299,498:   4006  63  66
1720775299,498:   2345  63  66
1720775299,498:   -708  63  66
1720775299,498:  -1138  63  66
1720775299,529:   1584  63  66
1720775299,529:   3862  63  66
1720775299,529:   2764  63  66
1720775299,529:   -109  63  66
1720775299,529:   -768  63  66
1720775299,529:   1702  63  66
1720775299,529:   3951  63  66
1720775299,529:   2865  63  66
1720775299,529:   -265  63  66
1720775299,529:  -1348  63  66
1720775299,529:    967  63  66
1720775299,529:   3557  63  66
1720775299,529:   3025  63  66
1720775299,529:    193  63  66
1720775299,529:   -987  63  66
1720775299,560:   1156  63  66
1720775299,560:   3752  63  66
1720775299,560:   3266  63  66
1720775299,560:    203  63  66
1720775299,560:  -1422  63  66
1720775299,560:    499  63  66
1720775299,560:   3388  63  66
1720775299,560:   3463  63  66
1720775299,560:    736  63  66
1720775299,560:   -993  63  66
1720775299,560:    691  63  66
1720775299,560:   3522  63  66
1720775299,560:   3649  63  66
1720775299,560:    736  63  66
1720775299,560:  -1441  63  66
1720775299,591:    -69  63  66
1720775299,591:   2952  63  66
1720775299,591:   3618  63  66
1720775299,591:   1122  63  66
1720775299,591:  -1049  63  66
1720775299,591:    159  63  66
1720775299,591:   3174  63  66
1720775299,591:   3953  63  66
1720775299,591:   1330  63  66
1720775299,591:  -1306  63  66
1720775299,591:   -520  63  66
1720775299,591:   2566  63  66
1720775299,591:   3851  63  66
1720775299,591:   1693  63  66
1720775299,591:   -900  63  66
1720775299,622:   -321  63  66
1720775299,622:   2689  63  66
1720775299,622:   4105  63  66
1720775299,622:   1948  63  66
1720775299,622:   -984  63  66
1720775299,622:   -806  63  66
1720775299,622:   2219  63  66
1720775299,622:   4110  63  66
1720775299,622:   2451  63  66
1720775299,622:   -411  63  66
1720775299,622:   -520  63  66
1720775299,622:   2273  63  66
1720775299,622:   4177  63  66
1720775299,622:   2523  63  66
1720775299,622:   -625  63  66
1720775299,654:  -1143  63  66
1720775299,654:   1573  63  66
1720775299,654:   3882  63  66
1720775299,654:   2771  63  66
1720775299,654:   -163  63  66
1720775299,654:   -851  63  66
1720775299,654:   1662  63  66
1720775299,654:   3964  63  66
1720775299,654:   2859  63  66
1720775299,654:   -345  63  66
1720775299,654:  -1459  63  66
1720775299,654:    922  63  66
1720775299,654:   3614  63  66
1720775299,654:   3129  63  66
1720775299,654:    284  63  66
1720775299,686:   -899  63  66
1720775299,686:   1289  63  66
1720775299,686:   3921  63  66
1720775299,686:   3395  63  66
1720775299,686:    230  63  66
1720775299,686:  -1478  63  66
1720775299,686:    424  63  66
1720775299,686:   3312  63  66
1720775299,686:   3351  63  66
1720775299,686:    562  63  66
1720775299,686:  -1190  63  66
1720775299,686:    555  63  66
1720775299,686:   3500  63  66
1720775299,686:   3727  63  66
1720775299,686:    854  63  66
1720775299,717:  -1363  63  66
1720775299,717:   -106  63  66
1720775299,717:   2715  63  66
1720775299,717:   3071  63  66
1720775299,717:    155  63  66
1720775299,717:  -2484  63  66
1720775299,717:  -1650  63  66
1720775299,717:   1228  63  66
1720775299,717:   2183  63  66
1720775299,717:     35  63  66
1720775299,717:  -1848  63  66
1720775299,717:     32  63  66
1720775299,717:   4634  63  66
1720775299,717:   7817  63  66
1720775299,717:   7718  63  66
1720775299,748:   7079  63  64
1720775299,748:   9402  63  64
1720775299,748:  14012  63  64
1720775299,748:  16917  63  64
1720775299,748:  15987  63  64
1720775299,748:  13769  63  64
1720775299,748:  14047  63  64
1720775299,748:  16673  63  64
1720775299,748:  17803  63  64
1720775299,748:  14974  63  64
1720775299,748:  10355  63  64
1720775299,748:   7890  63  64
1720775299,748:   8051  63  64
1720775299,748:   7521  63  64
1720775299,748:   3902  63  64
1720775299,780:   -812  63  64
1720775299,780:  -2690  63  64
1720775299,780:  -1156  63  64
1720775299,780:    331  63  64
1720775299,780:  -1069  63  64
1720775299,780:  -3801  63  64
1720775299,780:  -4049  63  64
1720775299,780:  -1138  63  64
1720775299,780:   1346  63  64
1720775299,780:    192  63  64
1720775299,780:  -3208  63  64
1720775299,780:  -4537  63  64
1720775299,780:  -2310  63  64
1720775299,780:    267  63  64
1720775299,780:   -378  63  64
1720775299,780:  -3451  63  64
1720775299,780:  -4828  63  64
1720775299,780:  -2648  63  64
1720775299,780:    186  63  64
1720775299,780:    -65  63  64
1720775299,780:  -3037  63  64
1720775299,780:  -4651  63  64
1720775299,812:  -2666  63  64
1720775299,812:    325  63  64
1720775299,812:    408  63  64
1720775299,812:  -2440  63  64
1720775299,812:  -4260  63  64
1720775299,812:  -2453  63  64
1720775299,812:    685  63  64
1720775299,812:   1085  63  64
1720775299,812:  -1736  63  64
1720775299,812:  -3917  63  64
1720775299,812:  -2464  63  64
1720775299,812:    736  63  64
1720775299,812:   1502  63  64
1720775299,812:  -1084  63  64
1720775299,812:  -3408  63  64
1720775299,844:  -2173  63  64
1720775299,844:   1096  63  64
1720775299,844:   2149  63  64
1720775299,844:   -397  63  64
1720775299,844:  -3119  63  64
1720775299,844:  -2352  63  64
1720775299,844:    893  63  64
1720775299,844:   2380  63  64
1720775299,844:    273  63  64
1720775299,844:  -2405  63  64
1720775299,844:  -1842  63  64
1720775299,844:   1333  63  64
1720775299,844:   2958  63  64
1720775299,844:    851  63  64
1720775299,844:  -2200  63  64
1720775299,876:  -2100  63  64
1720775299,876:   1028  63  64
1720775299,876:   3091  63  64
1720775299,876:   1468  63  64
1720775299,876:  -1521  63  64
1720775299,876:  -1723  63  64
1720775299,876:   1163  63  64
1720775299,876:   3251  63  64
1720775299,876:   1657  63  64
1720775299,876:  -1602  63  64
1720775299,876:  -2213  63  64
1720775299,876:    604  63  64
1720775299,876:   3139  63  64
1720775299,876:   2154  63  64
1720775299,876:   -831  63  64
1720775299,908:  -1569  63  64
1720775299,908:   1087  63  64
1720775299,908:   3663  63  64
1720775299,908:   2713  63  64
1720775299,908:   -579  63  64
1720775299,908:  -1864  63  64
1720775299,908:    500  63  64
1720775299,908:   3331  63  64
1720775299,908:   2913  63  64
1720775299,908:    -89  63  64
1720775299,908:  -1514  63  64
1720775299,908:    602  63  64
1720775299,908:   3377  63  64
1720775299,908:   3004  63  64
1720775299,908:   -184  63  64
1720775299,939:  -2003  63  64
1720775299,939:    -66  63  64
1720775299,939:   3065  63  64
1720775299,939:   3334  63  64
1720775299,939:    538  63  64
1720775299,939:  -1414  63  64
1720775299,939:    189  63  64
1720775299,939:   3193  63  64
1720775299,939:   3548  63  64
1720775299,939:    680  63  64
1720775299,939:  -1628  63  64
1720775299,939:   -333  63  64
1720775299,939:   2814  63  64
1720775299,939:   3691  63  64
1720775299,939:   1262  63  64
1720775299,970:  -1053  63  64
1720775299,970:    -23  63  64
1720775299,970:   2967  63  64
1720775299,970:   3865  63  64
1720775299,970:   1330  63  64
1720775299,970:  -1346  63  64
1720775299,970:   -624  63  64
1720775299,970:   2534  63  64
1720775299,970:   4030  63  64
1720775299,970:   2036  63  64
1720775299,970:   -601  63  64
1720775299,970:   -221  63  64
1720775299,970:   2643  63  64
1720775299,970:   4084  63  64
1720775299,970:   2036  63  64
1720775299,970:   -863  63  64
1720775299,970:   -754  63  64
1720775299,970:   2220  63  64
1720775299,970:   4177  63  64
1720775299,970:   2646  63  64
1720775299,970:   -159  63  64
1720775299,970:   -313  63  64
1720775299,970:   2439  63  64
1720775300,002:   4393  63  64
1720775300,002:   2824  63  64
1720775300,002:   -318  63  64
1720775300,002:   -915  63  64
1720775300,002:   1763  63  64
1720775300,002:   4168  63  64
1720775300,002:   3194  63  64
1720775300,002:    277  63  64
1720775300,002:   -544  63  64
1720775300,002:   1847  63  64
1720775300,002:   4181  63  64
1720775300,002:   3210  63  64
1720775300,002:     53  63  64
1720775300,002:  -1172  63  64
1720775300,002:   1079  63  64
1720775300,033:   3776  63  64
1720775300,033:   3382  63  64
1720775300,033:    517  63  64
1720775300,033:   -878  63  64
1720775300,033:   1074  63  64
1720775300,033:   3668  63  64
1720775300,033:   3301  63  64
1720775300,033:    267  63  64
1720775300,033:  -1490  63  64
1720775300,033:    286  63  64
1720775300,033:   3176  63  64
1720775300,033:   3360  63  64
1720775300,033:    654  63  64
1720775300,033:  -1240  63  64
1720775300,033:    233  63  64
1720775300,064:   3018  63  64
1720775300,064:   3276  63  64
1720775300,064:    478  63  64
1720775300,064:  -1760  63  64
1720775300,064:   -541  63  64
1720775300,064:   2450  63  64
1720775300,064:   3274  63  64
1720775300,064:    952  63  64
1720775300,064:  -1235  63  64
1720775300,064:   -210  63  64
1720775300,064:   2679  63  64
1720775300,064:   3539  63  64
1720775300,064:   1104  63  64
1720775300,064:  -1455  63  64
1720775300,064:   -753  63  64
1720775300,096:   2243  63  64
1720775300,096:   3584  63  64
1720775300,096:   1565  63  64
1720775300,096:  -1003  63  64
1720775300,096:   -576  63  64
1720775300,096:   2266  63  64
1720775300,096:   3672  63  64
1720775300,096:   1638  63  64
1720775300,096:  -1236  63  64
1720775300,096:  -1162  63  64
1720775300,096:   1719  63  64
1720775300,096:   3599  63  64
1720775300,096:   2056  63  64
1720775300,096:   -748  63  64
1720775300,096:   -963  63  64
1720775300,127:   1677  63  64
1720775300,127:   3563  63  64
1720775300,127:   2036  63  64
1720775300,127:  -1024  63  64
1720775300,127:  -1609  63  64
1720775300,127:    995  63  64
1720775300,127:   3328  63  64
1720775300,127:   2373  63  64
1720775300,127:   -459  63  64
1720775300,127:  -1214  63  64
1720775300,127:   1191  63  64
1720775300,127:   3534  63  64
1720775300,127:   2616  63  64
1720775300,127:   -466  63  64
1720775300,127:  -1659  63  64
1720775300,158:    565  63  64
1720775300,158:   3226  63  64
1720775300,158:   2843  63  64
1720775300,158:     39  63  64
1720775300,158:  -1276  63  64
1720775300,158:    756  63  64
1720775300,158:   3423  63  64
1720775300,158:   3110  63  64
1720775300,158:     94  63  64
1720775300,158:  -1680  63  64
1720775300,158:     89  63  64
1720775300,158:   3020  63  64
1720775300,158:   3276  63  64
1720775300,158:    626  63  64
1720775300,188:  -1249  63  64
1720775300,188:    240  63  64
1720775300,188:   3064  63  64
1720775300,188:   3372  63  64
1720775300,188:    598  63  64
1720775300,188:  -1654  63  64
1720775300,188:   -454  63  64
1720775300,188:   2534  63  64
1720775300,188:   3348  63  64
1720775300,188:    982  63  64
1720775300,188:  -1261  63  64
1720775300,188:   -237  63  64
1720775300,188:   2723  63  64
1720775300,188:   3659  63  64
1720775300,188:   1220  63  64
1720775300,188:  -1422  63  64
1720775300,188:   -791  63  64
1720775300,188:   2231  63  64
1720775300,188:   3665  63  64
1720775300,188:   1705  63  64
1720775300,188:   -885  63  64
1720775300,220:   -495  63  64
1720775300,220:   2377  63  64
1720775300,220:   3870  63  64
1720775300,220:   1883  63  64
1720775300,220:  -1046  63  64
1720775300,220:  -1072  63  64
1720775300,220:   1763  63  64
1720775300,220:   3678  63  64
1720775300,220:   2177  63  64
1720775300,220:   -634  63  64
1720775300,220:   -868  63  64
1720775300,220:   1816  63  64
1720775300,220:   3805  63  64
1720775300,220:   2351  63  64
1720775300,220:   -720  63  64
1720775300,251:  -1348  63  64
1720775300,251:   1267  63  64
1720775300,251:   3667  63  64
1720775300,251:   2747  63  64
1720775300,251:   -144  63  64
1720775300,251:   -997  63  64
1720775300,251:   1373  63  64
1720775300,251:   3757  63  64
1720775300,251:   2863  63  64
1720775300,251:   -283  63  64
1720775300,251:  -1579  63  64
1720775300,251:    612  63  64
1720775300,251:   3339  63  64
1720775300,251:   3032  63  64
1720775300,251:    220  63  64
1720775300,282:  -1175  63  64
1720775300,282:    800  63  64
1720775300,282:   3492  63  64
1720775300,282:   3239  63  64
1720775300,282:    244  63  64
1720775300,282:  -1559  63  64
1720775300,282:    184  63  64
1720775300,314:   3127  63  64
1720775300,314:   3411  63  64
1720775300,314:    767  63  64
1720775300,314:  -1116  63  64
1720775300,314:    393  63  64
1720775300,314:   3280  63  64
1720775300,314:   3649  63  64
1720775300,314:    886  63  64
1720775300,314:  -1396  63  64
1720775300,314:   -202  63  64
1720775300,314:   2844  63  64
1720775300,314:   3749  63  64
1720775300,314:   1435  63  64
1720775300,314:   -833  63  64
1720775300,314:    120  63  64
1720775300,314:   3026  63  64
1720775300,314:   3951  63  64
1720775300,314:   1517  63  64
1720775300,314:  -1140  63  64
1720775300,314:   -540  63  64
1720775300,314:   2460  63  64
1720775300,314:   3887  63  64
1720775300,314:   1917  63  64
1720775300,346:   -706  63  64
1720775300,346:   -361  63  64
1720775300,346:   2491  63  64
1720775300,346:   3999  63  64
1720775300,346:   2039  63  64
1720775300,346:   -878  63  64
1720775300,346:   -901  63  64
1720775300,346:   1963  63  64
1720775300,346:   3936  63  64
1720775300,346:   2492  63  64
1720775300,346:   -309  63  64
1720775300,346:   -585  63  64
1720775300,346:   2052  63  64
1720775300,346:   4027  63  64
1720775300,346:   2585  63  64
1720775300,346:   -497  63  64
1720775300,346:  -1174  63  64
1720775300,346:   1397  63  64
1720775300,346:   3811  63  64
1720775300,346:   2963  63  64
1720775300,346:    141  63  64
1720775300,346:   -711  63  64
1720775300,377:   1607  63  64
1720775300,377:   3952  63  64
1720775300,377:   3084  63  64
1720775300,377:      2  63  64
1720775300,377:  -1258  63  64
1720775300,377:    915  63  64
1720775300,377:   3605  63  64
1720775300,377:   3286  63  64
1720775300,408:    481  63  64
1720775300,408:   -923  63  64
1720775300,408:   1021  63  64
1720775300,408:   3691  63  64
1720775300,408:   3451  63  64
1720775300,408:    480  63  64
1720775300,408:  -1335  63  64
1720775300,408:    363  63  64
1720775300,408:   3279  63  64
1720775300,408:   3591  63  64
1720775300,408:   1000  63  64
1720775300,408:   -868  63  64
1720775300,408:    599  63  64
1720775300,408:   3432  63  64
1720775300,408:   3788  63  64
1720775300,440:   1048  63  64
1720775300,440:  -1223  63  64
1720775300,440:    -53  63  64
1720775300,440:   2957  63  64
1720775300,440:   3833  63  64
1720775300,440:   1486  63  64
1720775300,440:   -836  63  64
1720775300,440:     62  63  64
1720775300,440:   2964  63  64
1720775300,440:   3945  63  64
1720775300,440:   1577  63  64
1720775300,440:  -1074  63  64
1720775300,440:   -524  63  64
1720775300,440:   2434  63  64
1720775300,440:   3873  63  64
1720775300,440:   1947  63  64
1720775300,440:   -661  63  64
1720775300,440:   -351  63  64
1720775300,440:   2455  63  64
1720775300,440:   3945  63  64
1720775300,440:   1990  63  64
1720775300,440:   -929  63  64
1720775300,470:   -971  63  64
1720775300,470:   1882  63  64
1720775300,470:   3874  63  64
1720775300,470:   2475  63  64
1720775300,470:   -271  63  64
1720775300,470:   -490  63  64
1720775300,470:   2193  63  64
1720775300,470:   4182  63  64
1720775300,470:   2714  63  64
1720775300,470:   -416  63  64
1720775300,470:  -1135  63  64
1720775300,470:   1402  63  64
1720775300,470:   3762  63  64
1720775300,470:   2827  63  64
1720775300,470:    -74  63  64
1720775300,502:   -934  63  64
1720775300,502:   1454  63  64
1720775300,502:   3879  63  64
1720775300,502:   3026  63  64
1720775300,502:   -104  63  64
1720775300,502:  -1403  63  64
1720775300,502:    793  63  64
1720775300,502:   3539  63  64
1720775300,502:   3240  63  64
1720775300,502:    405  63  64
1720775300,502:  -1032  63  64
1720775300,502:    931  63  64
1720775300,502:   3659  63  64
1720775300,502:   3462  63  64
1720775300,502:    487  63  64
1720775300,502:  -1347  63  64
1720775300,502:    368  63  64
1720775300,502:   3341  63  64
1720775300,502:   3697  63  64
1720775300,502:   1097  63  64
1720775300,502:   -813  63  64
1720775300,502:    640  63  64
1720775300,502:   3513  63  64
1720775300,534:   3926  63  64
1720775300,534:   1203  63  64
1720775300,534:  -1094  63  64
1720775300,534:     52  63  64
1720775300,534:   3076  63  64
1720775300,534:   3991  63  64
1720775300,534:   1668  63  64
1720775300,534:   -659  63  64
1720775300,534:    231  63  64
1720775300,534:   3133  63  64
1720775300,534:   4098  63  64
1720775300,534:   1681  63  64
1720775300,534:  -1023  63  64
1720775300,534:   -472  63  64
1720775300,534:   2551  63  64
1720775300,565:   4066  63  64
1720775300,565:   2164  63  64
1720775300,565:   -472  63  64
1720775300,565:   -187  63  64
1720775300,565:   2626  63  64
1720775300,565:   4124  63  64
1720775300,565:   2138  63  64
1720775300,596:   -854  63  64
1720775300,596:   -960  63  64
1720775300,596:   1859  63  64
1720775300,596:   3823  63  64
1720775300,596:   2364  63  64
1720775300,596:   -464  63  64
1720775300,596:   -725  63  64
1720775300,596:   2009  63  64
1720775300,596:   4120  63  64
1720775300,596:   2766  63  64
1720775300,596:   -294  63  64
1720775300,596:   -949  63  64
1720775300,596:   1691  63  64
1720775300,596:   4143  63  64
1720775300,596:   3159  63  64
1720775300,627:    -11  63  64
1720775300,627:  -1297  63  64
1720775300,627:    644  63  64
1720775300,627:   2679  63  64
1720775300,627:   1493  63  64
1720775300,627:  -1906  63  64
1720775300,627:  -3293  63  64
1720775300,627:   -847  63  64
1720775300,627:   2538  63  64
1720775300,627:   3212  63  64
1720775300,627:   1636  63  64
1720775300,627:   1786  63  64
1720775300,627:   5670  63  64
1720775300,627:  10472  63  64
1720775300,627:  12209  63  64
1720775300,627:  10873  63  64
1720775300,627:  10468  63  64
1720775300,627:  13532  63  64
1720775300,627:  17676  63  64
1720775300,627:  18740  63  64
1720775300,627:  16195  63  64
1720775300,627:  13766  63  64
1720775300,627:  14307  63  64
1720775300,658:  15876  67  64
1720775300,658:  14437  67  64
1720775300,658:   9318  67  64
1720775300,658:   4426  67  64
1720775300,658:   3261  67  64
1720775300,658:   4460  67  64
1720775300,658:   3870  67  64
1720775300,658:    136  67  64
1720775300,658:  -3453  67  64
1720775300,658:  -3367  67  64
1720775300,658:   -613  67  64
1720775300,658:    710  67  64
1720775300,658:  -1250  67  64
1720775300,658:  -3723  67  64
1720775300,658:  -3210  67  64
1720775300,690:   -346  67  64
1720775300,690:   1012  67  64
1720775300,690:  -1044  67  64
1720775300,690:  -3877  67  64
1720775300,690:  -3816  67  64
1720775300,690:  -1172  67  64
1720775300,690:    270  67  64
1720775300,690:  -1674  67  64
1720775300,690:  -4575  67  64
1720775300,690:  -4547  67  64
1720775300,690:  -1516  67  64
1720775300,690:    726  67  64
1720775300,690:   -497  67  64
1720775300,690:  -3261  67  64
1720775300,690:  -3657  67  64
1720775300,721:  -1139  67  64
1720775300,721:    836  67  64
1720775300,721:   -507  67  64
1720775300,721:  -3480  67  64
1720775300,721:  -4054  67  64
1720775300,721:  -1331  67  64
1720775300,721:   1283  67  64
1720775300,721:    581  67  64
1720775300,721:  -2241  67  64
1720775300,721:  -3180  67  64
1720775300,721:   -880  67  64
1720775300,721:   1595  67  64
1720775300,721:    910  67  64
1720775300,721:  -2080  67  64
1720775300,721:  -3347  67  64
1720775300,752:  -1140  67  64
1720775300,752:   1703  67  64
1720775300,752:   1555  67  64
1720775300,752:  -1222  67  64
1720775300,752:  -2752  67  64
1720775300,752:   -903  67  64
1720775300,752:   1850  67  64
1720775300,752:   1813  67  64
1720775300,752:  -1031  67  64
1720775300,752:  -2878  67  64
1720775300,752:  -1239  67  64
1720775300,752:   1752  67  64
1720775300,752:   2247  67  64
1720775300,752:   -235  67  64
1720775300,752:  -2170  67  64
1720775300,784:   -819  67  64
1720775300,784:   2034  67  64
1720775300,784:   2561  67  64
1720775300,784:    -33  67  64
1720775300,784:  -2319  67  64
1720775300,784:  -1243  67  64
1720775300,784:   1778  67  64
1720775300,784:   2816  67  64
1720775300,784:    624  67  64
1720775300,784:  -1703  67  64
1720775300,784:   -905  67  64
1720775300,784:   1983  67  64
1720775300,784:   3099  67  64
1720775300,784:    870  67  64
1720775300,784:  -1798  67  64
1720775300,815:  -1372  67  64
1720775300,815:   1547  67  64
1720775300,815:   3117  67  64
1720775300,815:   1345  67  64
1720775300,815:  -1265  67  64
1720775300,815:  -1082  67  64
1720775300,815:   1670  67  64
1720775300,815:   3283  67  64
1720775300,815:   1502  67  64
1720775300,815:  -1397  67  64
1720775300,815:  -1570  67  64
1720775300,815:   1201  67  64
1720775300,815:   3283  67  64
1720775300,815:   2020  67  64
1720775300,815:   -757  67  64
1720775300,846:  -1181  67  64
1720775300,846:   1363  67  64
1720775300,846:   3459  67  64
1720775300,846:   2236  67  64
1720775300,846:   -778  67  64
1720775300,846:  -1597  67  64
1720775300,846:    825  67  64
1720775300,846:   3267  67  64
1720775300,846:   2554  67  64
1720775300,846:   -239  67  64
1720775300,846:  -1222  67  64
1720775300,846:    990  67  64
1720775300,846:   3425  67  64
1720775300,846:   2762  67  64
1720775300,846:   -234  67  64
1720775300,877:  -1607  67  64
1720775300,877:    447  67  64
1720775300,877:   3215  67  64
1720775300,877:   3118  67  64
1720775300,877:    441  67  64
1720775300,877:  -1044  67  64
1720775300,877:    779  67  64
1720775300,877:   3497  67  64
1720775300,877:   3452  67  64
1720775300,877:    592  67  64
1720775300,877:  -1319  67  64
1720775300,877:    228  67  64
1720775300,877:   3154  67  64
1720775300,877:   3630  67  64
1720775300,877:   1135  67  64
1720775300,877:   -833  67  64
1720775300,877:    492  67  64
1720775300,877:   3367  67  64
1720775300,877:   3940  67  64
1720775300,877:   1348  67  64
1720775300,877:  -1005  67  64
1720775300,877:     -7  67  64
1720775300,909:   3001  67  64
1720775300,909:   4082  67  64
1720775300,909:   1920  67  64
1720775300,909:   -439  67  64
1720775300,909:    297  67  64
1720775300,909:   3153  67  64
1720775300,909:   4273  67  64
1720775300,909:   2032  67  64
1720775300,909:   -697  67  64
1720775300,909:   -348  67  64
1720775300,909:   2538  67  64
1720775300,909:   4122  67  64
1720775300,909:   2358  67  64
1720775300,909:   -296  67  64
1720775300,909:   -191  67  64
1720775300,940:   2515  67  64
1720775300,940:   4139  67  64
1720775300,940:   2378  67  64
1720775300,940:   -554  67  64
1720775300,940:   -821  67  64
1720775300,940:   1855  67  64
1720775300,940:   3902  67  64
1720775300,940:   2661  67  64
1720775300,940:   -101  67  64
1720775300,940:   -564  67  64
1720775300,940:   1903  67  64
1720775300,940:   3946  67  64
1720775300,940:   2720  67  64
1720775300,940:   -281  67  64
1720775300,940:  -1117  67  64
1720775300,971:   1261  67  64
1720775300,971:   3679  67  64
1720775300,971:   2984  67  64
1720775300,971:    213  67  64
1720775300,971:   -798  67  64
1720775300,971:   1339  67  64
1720775300,971:   3713  67  64
1720775300,971:   3052  67  64
1720775300,971:     84  67  64
1720775300,971:  -1304  67  64
1720775300,971:    670  67  64
1720775300,971:   3352  67  64
1720775300,971:   3228  67  64
1720775300,971:    568  67  64
1720775300,971:   -930  67  64
1720775301,002:    813  67  64
1720775301,002:   3433  67  64
1720775301,002:   3348  67  64
1720775301,002:    517  67  64
1720775301,002:  -1357  67  64
1720775301,002:    186  67  64
1720775301,002:   3090  67  64
1720775301,002:   3571  67  64
1720775301,002:   1104  67  64
1720775301,002:   -870  67  64
1720775301,002:    387  67  64
1720775301,002:   3174  67  64
1720775301,002:   3706  67  64
1720775301,002:   1123  67  64
1720775301,002:  -1235  67  64
1720775301,033:   -296  67  64
1720775301,033:   2633  67  64
1720775301,033:   3683  67  64
1720775301,033:   1545  67  64
1720775301,033:   -791  67  64
1720775301,033:    -76  67  64
1720775301,033:   2749  67  64
1720775301,033:   3890  67  64
1720775301,033:   1732  67  64
1720775301,033:   -919  67  64
1720775301,033:   -556  67  64
1720775301,033:   2296  67  64
1720775301,033:   3863  67  64
1720775301,033:   2131  67  64
1720775301,033:   -489  67  64
1720775301,063:   -402  67  64
1720775301,063:   2249  67  64
1720775301,063:   3848  67  64
1720775301,063:   2130  67  64
1720775301,063:   -742  67  64
1720775301,063:   -994  67  64
1720775301,063:   1657  67  64
1720775301,063:   3700  67  64
1720775301,063:   2504  67  64
1720775301,063:   -214  67  64
1720775301,063:   -698  67  64
1720775301,063:   1701  67  64
1720775301,063:   3705  67  64
1720775301,063:   2511  67  64
1720775301,063:   -437  67  64
1720775301,094:  -1269  67  64
1720775301,094:   1072  67  64
1720775301,094:   3475  67  64
1720775301,094:   2825  67  64
1720775301,094:    106  67  64
1720775301,094:   -909  67  64
1720775301,094:   1186  67  64
1720775301,094:   3556  67  64
1720775301,094:   2954  67  64
1720775301,094:     48  67  64
1720775301,094:  -1353  67  64
1720775301,094:    558  67  64
1720775301,094:   3221  67  64
1720775301,094:   3162  67  64
1720775301,094:    577  67  64
1720775301,125:   -930  67  64
1720775301,125:    735  67  64
1720775301,125:   3317  67  64
1720775301,125:   3299  67  64
1720775301,125:    564  67  64
1720775301,125:  -1320  67  64
1720775301,125:     95  67  64
1720775301,125:   2884  67  64
1720775301,157:   3375  67  64
1720775301,157:   1003  67  64
1720775301,157:   -942  67  64
1720775301,157:    222  67  64
1720775301,157:   2915  67  64
1720775301,157:   3487  67  64
1720775301,157:   1065  67  64
1720775301,157:  -1178  67  64
1720775301,157:   -273  67  64
1720775301,157:   2558  67  64
1720775301,157:   3605  67  64
1720775301,157:   1583  67  64
1720775301,157:   -662  67  64
1720775301,157:     -7  67  64
1720775301,157:   2654  67  64
1720775301,157:   3689  67  64
1720775301,157:   1558  67  64
1720775301,157:  -1017  67  64
1720775301,157:   -652  67  64
1720775301,157:   2136  67  64
1720775301,157:   3677  67  64
1720775301,157:   2014  67  64
1720775301,189:   -507  67  64
1720775301,189:   -382  67  64
1720775301,189:   2244  67  64
1720775301,189:   3834  67  64
1720775301,189:   2167  67  64
1720775301,189:   -642  67  64
1720775301,189:   -889  67  64
1720775301,189:   1711  67  64
1720775301,189:   3727  67  64
1720775301,189:   2584  67  64
1720775301,189:    -32  67  64
1720775301,189:   -436  67  64
1720775301,189:   2000  67  64
1720775301,189:   4035  67  64
1720775301,189:   2897  67  64
1720775301,189:      2  67  64
1720775301,189:   -831  67  64
1720775301,189:   1456  67  64
1720775301,189:   3819  67  64
1720775301,189:   3196  67  64
1720775301,219:    554  67  64
1720775301,219:   -410  67  64
1720775301,219:   1662  67  64
1720775301,219:   3971  67  64
1720775301,219:   3338  67  64
1720775301,219:    449  67  64
1720775301,219:   -938  67  64
1720775301,219:    936  67  64
1720775301,219:   3528  67  64
1720775301,219:   3425  67  64
1720775301,219:    840  67  64
1720775301,219:   -676  67  64
1720775301,219:    937  67  64
1720775301,219:   3481  67  64
1720775301,219:   3523  67  64
1720775301,251:    936  67  64
1720775301,251:   -846  67  64
1720775301,251:    534  67  64
1720775301,251:   3222  67  64
1720775301,251:   3713  67  64
1720775301,251:   1464  67  64
1720775301,251:   -418  67  64
1720775301,251:    591  67  64
1720775301,251:   3010  67  64
1720775301,251:   3471  67  64
1720775301,251:   1213  67  64
1720775301,251:   -803  67  64
1720775301,251:    122  67  64
1720775301,251:   2790  67  64
1720775301,251:   3767  67  64
1720775301,282:   1900  67  64
1720775301,282:   -195  67  64
1720775301,282:    309  67  64
1720775301,282:   2600  67  64
1720775301,282:   3439  67  64
1720775301,282:   1509  67  64
1720775301,282:   -739  67  64
1720775301,282:   -331  67  64
1720775301,282:   2204  67  64
1720775301,282:   3596  67  64
1720775301,282:   2143  67  64
1720775301,282:    -76  67  64
1720775301,282:    -20  67  64
1720775301,282:   2148  67  64
1720775301,282:   3373  67  64
1720775301,282:   1813  67  64
1720775301,282:   -622  67  64
1720775301,282:   -746  67  64
1720775301,282:   1596  67  64
1720775301,282:   3368  67  64
1720775301,282:   2364  67  64
1720775301,282:     89  67  64
1720775301,313:   -277  67  64
1720775301,313:   1757  67  64
1720775301,313:   3381  67  64
1720775301,313:   2279  67  64
1720775301,313:   -239  67  64
1720775301,313:   -879  67  64
1720775301,313:   1182  67  64
1720775301,313:   3229  67  64
1720775301,345:   2631  67  64
1720775301,345:    297  67  64
1720775301,345:   -540  67  64
1720775301,345:   1264  67  64
1720775301,345:   3245  67  64
1720775301,345:   2672  67  64
1720775301,345:    187  67  64
1720775301,345:   -943  67  64
1720775301,345:    753  67  64
1720775301,345:   3010  67  64
1720775301,345:   2879  67  64
1720775301,345:    613  67  64
1720775301,345:   -666  67  64
1720775301,345:    786  67  64
1720775301,345:   2971  67  64
1720775301,345:   2890  67  64
1720775301,345:    519  67  64
1720775301,345:  -1055  67  64
1720775301,345:    215  67  64
1720775301,345:   2604  67  64
1720775301,345:   2978  67  64
1720775301,345:    928  67  64
1720775301,377:   -689  67  64
1720775301,377:    362  67  64
1720775301,377:   2643  67  64
1720775301,377:   3044  67  64
1720775301,377:    919  67  64
1720775301,377:   -950  67  64
1720775301,377:    -77  67  64
1720775301,377:   2374  67  64
1720775301,377:   3201  67  64
1720775301,377:   1391  67  64
1720775301,377:   -531  67  64
1720775301,377:     91  67  64
1720775301,377:   2403  67  64
1720775301,377:   3249  67  64
1720775301,377:   1364  67  64
1720775301,407:   -857  67  64
1720775301,407:   -517  67  64
1720775301,407:   1877  67  64
1720775301,407:   3159  67  64
1720775301,407:   1698  67  64
1720775301,407:   -447  67  64
1720775301,407:   -294  67  64
1720775301,407:   1967  67  64
1720775301,438:   3277  67  64
1720775301,438:   1786  67  64
1720775301,438:   -632  67  64
1720775301,438:   -800  67  64
1720775301,438:   1458  67  64
1720775301,438:   3144  67  64
1720775301,438:   2073  67  64
1720775301,438:   -241  67  64
1720775301,438:   -604  67  64
1720775301,438:   1488  67  64
1720775301,438:   3203  67  64
1720775301,438:   2169  67  64
1720775301,438:   -351  67  64
1720775301,438:  -1039  67  64
1720775301,438:    981  67  64
1720775301,438:   3037  67  64
1720775301,438:   2481  67  64
1720775301,438:    188  67  64
1720775301,438:   -613  67  64
1720775301,438:   1230  67  64
1720775301,438:   3216  67  64
1720775301,438:   2537  67  64
1720775301,469:   -207  67  64
1720775301,469:  -1707  67  64
1720775301,469:   -403  67  64
1720775301,469:   1502  67  64
1720775301,469:   1074  67  64
1720775301,469:  -1399  67  64
1720775301,469:  -2691  67  64
1720775301,469:   -943  67  64
1720775301,469:   1878  67  64
1720775301,469:   2715  67  64
1720775301,469:   1518  67  64
1720775301,469:   1420  67  64
1720775301,469:   4475  67  64
1720775301,469:   8809  67  64
1720775301,469:  11054  67  64
1720775301,501:  10683  71  66
1720775301,501:  10618  71  66
1720775301,501:  13161  71  66
1720775301,501:  16709  71  66
1720775301,501:  17810  71  66
1720775301,501:  15605  71  66
1720775301,501:  12976  71  66
1720775301,501:  12657  71  66
1720775301,501:  13578  71  66
1720775301,501:  12459  71  66
1720775301,501:   8331  71  66
1720775301,501:   4056  71  66
1720775301,501:   2705  71  66
1720775301,501:   3531  71  66
1720775301,501:   3148  71  66
1720775301,532:     91  71  66
1720775301,532:  -3110  71  66
1720775301,532:  -3251  71  66
1720775301,532:   -789  71  66
1720775301,532:    755  71  66
1720775301,532:   -652  71  66
1720775301,532:  -3008  71  66
1720775301,532:  -3078  71  66
1720775301,532:   -887  71  66
1720775301,532:    368  71  66
1720775301,532:  -1379  71  66
1720775301,532:  -4206  71  66
1720775301,532:  -4653  71  66
1720775301,532:  -2388  71  66
1720775301,532:   -574  71  66
1720775301,532:  -1632  71  66
1720775301,532:  -4018  71  66
1720775301,532:  -4277  71  66
1720775301,532:  -1804  71  66
1720775301,532:    298  71  66
1720775301,532:   -691  71  66
1720775301,532:  -3506  71  66
1720775301,532:  -4464  71  66
1720775301,563:  -2403  71  66
1720775301,563:   -122  71  66
1720775301,563:   -588  71  66
1720775301,563:  -2982  71  66
1720775301,563:  -3795  71  66
1720775301,563:  -1653  71  66
1720775301,563:    776  71  66
1720775301,563:    342  71  66
1720775301,563:  -2412  71  66
1720775301,563:  -3833  71  66
1720775301,563:  -2068  71  66
1720775301,563:    529  71  66
1720775301,563:    592  71  66
1720775301,563:  -1796  71  66
1720775301,563:  -3197  71  66
1720775301,595:  -1508  71  66
1720775301,595:   1150  71  66
1720775301,595:   1300  71  66
1720775301,595:  -1303  71  66
1720775301,595:  -3214  71  66
1720775301,595:  -1919  71  66
1720775301,595:    839  71  66
1720775301,626:   1457  71  66
1720775301,626:   -755  71  66
1720775301,626:  -2647  71  66
1720775301,626:  -1501  71  66
1720775301,626:   1243  71  66
1720775301,626:   1971  71  66
1720775301,626:   -328  71  66
1720775301,626:  -2617  71  66
1720775301,626:  -1864  71  66
1720775301,626:    898  71  66
1720775301,626:   2029  71  66
1720775301,626:    111  71  66
1720775301,626:  -2164  71  66
1720775301,626:  -1625  71  66
1720775301,626:   1044  71  66
1720775301,626:   2293  71  66
1720775301,626:    418  71  66
1720775301,626:  -2102  71  66
1720775301,626:  -1888  71  66
1720775301,626:    773  71  66
1720775301,626:   2390  71  66
1720775301,626:    911  71  66
1720775301,626:  -1556  71  66
1720775301,658:  -1572  71  66
1720775301,658:    922  71  66
1720775301,658:   2582  71  66
1720775301,658:   1120  71  66
1720775301,658:  -1599  71  66
1720775301,658:  -1971  71  66
1720775301,658:    473  71  66
1720775301,658:   2519  71  66
1720775301,658:   1547  71  66
1720775301,658:  -1008  71  66
1720775301,658:  -1583  71  66
1720775301,658:    630  71  66
1720775301,658:   2635  71  66
1720775301,658:   1664  71  66
1720775301,658:  -1116  71  66
1720775301,689:  -2044  71  66
1720775301,689:     70  71  66
1720775301,689:   2412  71  66
1720775301,689:   1935  71  66
1720775301,689:   -621  71  66
1720775301,689:  -1705  71  66
1720775301,689:    198  71  66
1720775301,689:   2532  71  66
1720775301,689:   2127  71  66
1720775301,689:   -587  71  66
1720775301,689:  -2035  71  66
1720775301,689:   -323  71  66
1720775301,689:   2269  71  66
1720775301,689:   2365  71  66
1720775301,689:    -53  71  66
1720775301,720:  -1624  71  66
1720775301,720:   -178  71  66
1720775301,720:   2325  71  66
1720775301,720:   2489  71  66
1720775301,720:    -13  71  66
1720775301,720:  -1882  71  66
1720775301,720:   -632  71  66
1720775301,720:   2097  71  66
1720775301,720:   2780  71  66
1720775301,720:    664  71  66
1720775301,720:  -1240  71  66
1720775301,720:   -242  71  66
1720775301,720:   2359  71  66
1720775301,720:   3092  71  66
1720775301,720:    921  71  66
1720775301,751:  -1271  71  66
1720775301,751:   -535  71  66
1720775301,751:   2179  71  66
1720775301,751:   3360  71  66
1720775301,751:   1586  71  66
1720775301,751:   -600  71  66
1720775301,751:   -123  71  66
1720775301,751:   2402  71  66
1720775301,751:   3577  71  66
1720775301,751:   1739  71  66
1720775301,751:   -736  71  66
1720775301,751:   -563  71  66
1720775301,751:   2017  71  66
1720775301,751:   3626  71  66
1720775301,751:   2231  71  66
1720775301,781:   -176  71  66
1720775301,781:   -256  71  66
1720775301,781:   2097  71  66
1720775301,781:   3675  71  66
1720775301,781:   2244  71  66
1720775301,781:   -421  71  66
1720775301,781:   -822  71  66
1720775301,781:   1519  71  66
1720775301,781:   3486  71  66
1720775301,781:   2513  71  66
1720775301,781:    -16  71  66
1720775301,781:   -606  71  66
1720775301,781:   1561  71  66
1720775301,781:   3545  71  66
1720775301,781:   2580  71  66
1720775301,781:   -220  71  66
1720775301,781:  -1224  71  66
1720775301,781:    809  71  66
1720775301,781:   3131  71  66
1720775301,781:   2688  71  66
1720775301,781:    160  71  66
1720775301,781:   -931  71  66
1720775301,812:    969  71  66
1720775301,812:   3331  71  66
1720775301,812:   2952  71  66
1720775301,812:    205  71  66
1720775301,812:  -1323  71  66
1720775301,812:    329  71  66
1720775301,812:   2907  71  66
1720775301,812:   2992  71  66
1720775301,844:    525  71  66
1720775301,844:  -1083  71  66
1720775301,844:    418  71  66
1720775301,844:   3047  71  66
1720775301,844:   3286  71  66
1720775301,844:    718  71  66
1720775301,844:  -1296  71  66
1720775301,844:   -132  71  66
1720775301,844:   2601  71  66
1720775301,844:   3279  71  66
1720775301,844:   1058  71  66
1720775301,844:   -989  71  66
1720775301,844:    -31  71  66
1720775301,844:   2653  71  66
1720775301,844:   3454  71  66
1720775301,874:   1208  71  66
1720775301,874:  -1161  71  66
1720775301,874:   -540  71  66
1720775301,874:   2186  71  66
1720775301,874:   3397  71  66
1720775301,874:   1544  71  66
1720775301,874:   -789  71  66
1720775301,874:   -369  71  66
1720775301,874:   2249  71  66
1720775301,874:   3526  71  66
1720775301,874:   1645  71  66
1720775301,874:   -995  71  66
1720775301,874:   -921  71  66
1720775301,874:   1711  71  66
1720775301,874:   3408  71  66
1720775301,905:   1977  71  66
1720775301,905:   -566  71  66
1720775301,905:   -692  71  66
1720775301,905:   1802  71  66
1720775301,905:   3563  71  66
1720775301,905:   2150  71  66
1720775301,905:   -679  71  66
1720775301,905:  -1219  71  66
1720775301,905:   1174  71  66
1720775301,905:   3299  71  66
1720775301,905:   2391  71  66
1720775301,905:   -222  71  66
1720775301,905:   -896  71  66
1720775301,905:   1336  71  66
1720775301,905:   3472  71  66
1720775301,905:   2578  71  66
1720775301,905:   -296  71  66
1720775301,905:  -1386  71  66
1720775301,905:    691  71  66
1720775301,905:   3142  71  66
1720775301,905:   2742  71  66
1720775301,905:    102  71  66
1720775301,937:  -1128  71  66
1720775301,937:    773  71  66
1720775301,937:   3269  71  66
1720775301,937:   2993  71  66
1720775301,937:    206  71  66
1720775301,937:  -1426  71  66
1720775301,937:    223  71  66
1720775301,937:   2926  71  66
1720775301,937:   3125  71  66
1720775301,937:    637  71  66
1720775301,937:  -1084  71  66
1720775301,937:    370  71  66
1720775301,937:   3068  71  66
1720775301,937:   3380  71  66
1720775301,937:    771  71  66
1720775301,968:  -1364  71  66
1720775301,968:   -250  71  66
1720775301,968:   2562  71  66
1720775301,968:   3336  71  66
1720775301,968:   1103  71  66
1720775301,968:  -1040  71  66
1720775301,968:   -117  71  66
1720775301,968:   2638  71  66
1720775301,968:   3495  71  66
1720775301,968:   1171  71  66
1720775301,968:  -1350  71  66
1720775301,968:   -777  71  66
1720775301,968:   2053  71  66
1720775301,968:   3366  71  66
1720775301,968:   1462  71  66
1720775301,999:  -1013  71  66
1720775301,999:   -614  71  66
1720775301,999:   2174  71  66
1720775301,999:   3635  71  66
1720775301,999:   1741  71  66
1720775301,999:  -1074  71  66
1720775301,999:  -1107  71  66
1720775301,999:   1628  71  66
1720775301,999:   3498  71  66
1720775301,999:   2086  71  66
1720775301,999:   -602  71  66
1720775301,999:   -825  71  66
1720775301,999:   1766  71  66
1720775301,999:   3703  71  66
1720775301,999:   2324  71  66
1720775302,031:   -644  71  66
1720775302,031:  -1299  71  66
1720775302,031:   1166  71  66
1720775302,031:   3459  71  66
1720775302,031:   2593  71  66
1720775302,031:   -166  71  66
1720775302,031:   -983  71  66
1720775302,031:   1295  71  66
1720775302,031:   3611  71  66
1720775302,031:   2807  71  66
1720775302,031:   -162  71  66
1720775302,031:  -1394  71  66
1720775302,031:    686  71  66
1720775302,031:   3274  71  66
1720775302,031:   2967  71  66
1720775302,063:    267  71  66
1720775302,063:  -1085  71  66
1720775302,063:    787  71  66
1720775302,063:   3354  71  66
1720775302,063:   3115  71  66
1720775302,063:    250  71  66
1720775302,063:  -1488  71  66
1720775302,063:    166  71  66
1720775302,063:   2984  71  66
1720775302,063:   3275  71  66
1720775302,063:    757  71  66
1720775302,063:  -1060  71  66
1720775302,063:    352  71  66
1720775302,063:   3090  71  66
1720775302,063:   3434  71  66
1720775302,095:    782  71  66
1720775302,095:  -1420  71  66
1720775302,095:   -291  71  66
1720775302,095:   2625  71  66
1720775302,095:   3491  71  66
1720775302,095:   1252  71  66
1720775302,095:   -961  71  66
1720775302,095:    -61  71  66
1720775302,095:   2764  71  66
1720775302,095:   3708  71  66
1720775302,095:   1392  71  66
1720775302,095:  -1194  71  66
1720775302,095:   -662  71  66
1720775302,095:   2223  71  66
1720775302,095:   3637  71  66
1720775302,095:   1770  71  66
1720775302,095:   -774  71  66
1720775302,095:   -473  71  66
1720775302,095:   2278  71  66
1720775302,095:   3764  71  66
1720775302,095:   1881  71  66
1720775302,095:   -986  71  66
1720775302,095:  -1079  71  66
1720775302,127:   1658  71  66
1720775302,127:   3586  71  66
1720775302,127:   2208  71  66
1720775302,127:   -520  71  66
1720775302,127:   -804  71  66
1720775302,127:   1792  71  66
1720775302,127:   3796  71  66
1720775302,127:   2462  71  66
1720775302,127:   -547  71  66
1720775302,127:  -1274  71  66
1720775302,127:   1176  71  66
1720775302,127:   3520  71  66
1720775302,127:   2690  71  66
1720775302,127:   -103  71  66
1720775302,127:   -980  71  66
1720775302,158:   1300  71  66
1720775302,158:   3685  71  66
1720775302,158:   2935  71  66
1720775302,158:    -56  71  66
1720775302,158:  -1333  71  66
1720775302,158:    769  71  66
1720775302,158:   3445  71  66
1720775302,158:   3197  71  66
1720775302,158:    457  71  66
1720775302,158:   -983  71  66
1720775302,158:    863  71  66
1720775302,158:   3485  71  66
1720775302,158:   3294  71  66
1720775302,158:    390  71  66
1720775302,158:  -1443  71  66
1720775302,189:    164  71  66
1720775302,189:   3018  71  66
1720775302,189:   3354  71  66
1720775302,189:    812  71  66
1720775302,189:  -1071  71  66
1720775302,189:    328  71  66
1720775302,189:   3133  71  66
1720775302,189:   3544  71  66
1720775302,189:    871  71  66
1720775302,189:  -1415  71  66
1720775302,189:   -327  71  66
1720775302,189:   2640  71  66
1720775302,220:   3574  71  66
1720775302,220:   1324  71  66
1720775302,220:   -973  71  66
1720775302,220:   -130  71  66
1720775302,220:   2721  71  66
1720775302,220:   3717  71  66
1720775302,220:   1387  71  66
1720775302,220:  -1279  71  66
1720775302,220:   -784  71  66
1720775302,220:   2170  71  66
1720775302,220:   3705  71  66
1720775302,220:   1907  71  66
1720775302,220:   -643  71  66
1720775302,220:   -364  71  66
1720775302,220:   2384  71  66
1720775302,220:   3813  71  66
1720775302,220:   1725  71  66
1720775302,220:  -1499  71  66
1720775302,220:  -2004  71  66
1720775302,220:    359  71  66
1720775302,220:   1971  71  66
1720775302,220:    355  71  66
1720775302,220:  -2441  71  66
1720775302,252:  -2488  71  66
1720775302,252:    721  71  66
1720775302,252:   3692  71  66
1720775302,252:   3639  71  66
1720775302,252:   2226  71  66
1720775302,252:   3392  71  66
1720775302,252:   7904  71  66
1720775302,252:  12267  71  66
1720775302,252:  13271  71  66
1720775302,252:  12111  71  66
1720775302,252:  12670  71  66
1720775302,252:  16080  71  66
1720775302,252:  19083  71  66
1720775302,252:  18315  71  66
1720775302,252:  14706  71  66
1720775302,283:  12308  78  70
1720775302,283:  12799  78  70
1720775302,283:  13343  78  70
1720775302,283:  10562  78  70
1720775302,283:   5231  78  70
1720775302,283:   1516  78  70
1720775302,283:   1552  78  70
1720775302,314:   2710  78  70
1720775302,314:   1260  78  70
1720775302,314:  -2645  78  70
1720775302,314:  -5018  78  70
1720775302,314:  -3394  78  70
1720775302,314:   -157  78  70
1720775302,314:    562  78  70
1720775302,314:  -1865  78  70
1720775302,314:  -3918  78  70
1720775302,314:  -2804  78  70
1720775302,314:   -248  78  70
1720775302,314:    -22  78  70
1720775302,314:  -2870  78  70
1720775302,314:  -5350  78  70
1720775302,314:  -4417  78  70
1720775302,314:  -1493  78  70
1720775302,314:   -471  78  70
1720775302,314:  -2561  78  70
1720775302,314:  -4686  78  70
1720775302,314:  -3674  78  70
1720775302,314:   -647  78  70
1720775302,314:    497  78  70
1720775302,314:  -1782  78  70
1720775302,346:  -4531  78  70
1720775302,346:  -4175  78  70
1720775302,346:  -1276  78  70
1720775302,346:    350  78  70
1720775302,346:  -1281  78  70
1720775302,346:  -3703  78  70
1720775302,346:  -3349  78  70
1720775302,346:   -485  78  70
1720775302,346:   1176  78  70
1720775302,346:   -598  78  70
1720775302,346:  -3508  78  70
1720775302,346:  -3694  78  70
1720775302,346:   -916  78  70
1720775302,346:   1219  78  70
1720775302,346:     60  78  70
1720775302,378:  -2597  78  70
1720775302,378:  -2931  78  70
1720775302,378:   -350  78  70
1720775302,378:   1746  78  70
1720775302,378:    525  78  70
1720775302,378:  -2467  78  70
1720775302,378:  -3244  78  70
1720775302,378:   -769  78  70
1720775302,378:   1724  78  70
1720775302,378:   1056  78  70
1720775302,378:  -1696  78  70
1720775302,378:  -2630  78  70
1720775302,378:   -351  78  70
1720775302,378:   2155  78  70
1720775302,378:   1539  78  70
1720775302,409:  -1456  78  70
1720775302,409:  -2854  78  70
1720775302,409:   -811  78  70
1720775302,409:   1974  78  70
1720775302,409:   1900  78  70
1720775302,409:   -782  78  70
1720775302,409:  -2301  78  70
1720775302,409:   -501  78  70
1720775302,409:   2233  78  70
1720775302,409:   2231  78  70
1720775302,409:   -599  78  70
1720775302,409:  -2511  78  70
1720775302,409:   -974  78  70
1720775302,409:   1967  78  70
1720775302,409:   2473  78  70
1720775302,440:    -12  78  70
1720775302,440:  -2010  78  70
1720775302,440:   -723  78  70
1720775302,440:   2151  78  70
1720775302,440:   2765  78  70
1720775302,440:    210  78  70
1720775302,440:  -2157  78  70
1720775302,440:  -1205  78  70
1720775302,440:   1775  78  70
1720775302,440:   2877  78  70
1720775302,440:    747  78  70
1720775302,440:  -1620  78  70
1720775302,440:   -926  78  70
1720775302,440:   1911  78  70
1720775302,440:   3066  78  70
1720775302,472:    883  78  70
1720775302,472:  -1820  78  70
1720775302,472:  -1480  78  70
1720775302,472:   1412  78  70
1720775302,472:   3055  78  70
1720775302,472:   1374  78  70
1720775302,472:  -1231  78  70
1720775302,472:  -1119  78  70
1720775302,472:   1599  78  70
1720775302,472:   3270  78  70
1720775302,472:   1572  78  70
1720775302,472:  -1330  78  70
1720775302,472:  -1596  78  70
1720775302,472:   1095  78  70
1720775302,472:   3191  78  70
1720775302,503:   1997  78  70
1720775302,503:   -755  78  70
1720775302,503:  -1220  78  70
1720775302,503:   1300  78  70
1720775302,503:   3447  78  70
1720775302,503:   2299  78  70
1720775302,503:   -714  78  70
1720775302,503:  -1607  78  70
1720775302,503:    771  78  70
1720775302,503:   3274  78  70
1720775302,503:   2666  78  70
1720775302,503:    -98  78  70
1720775302,503:  -1141  78  70
1720775302,503:   1035  78  70
1720775302,503:   3543  78  70
1720775302,503:   3006  78  70
1720775302,503:     50  78  70
1720775302,503:  -1396  78  70
1720775302,503:    589  78  70
1720775302,503:   3393  78  70
1720775302,503:   3389  78  70
1720775302,503:    730  78  70
1720775302,534:   -851  78  70
1720775302,534:    885  78  70
1720775302,534:   3641  78  70
1720775302,534:   3717  78  70
1720775302,534:    906  78  70
1720775302,534:  -1098  78  70
1720775302,534:    325  78  70
1720775302,534:   3234  78  70
1720775302,534:   3787  78  70
1720775302,534:   1321  78  70
1720775302,534:   -755  78  70
1720775302,534:    421  78  70
1720775302,534:   3250  78  70
1720775302,534:   3891  78  70
1720775302,534:   1344  78  70
1720775302,565:  -1095  78  70
1720775302,565:   -240  78  70
1720775302,565:   2709  78  70
1720775302,565:   3848  78  70
1720775302,565:   1735  78  70
1720775302,565:   -695  78  70
1720775302,565:    -88  78  70
1720775302,565:   2725  78  70
1720775302,565:   3927  78  70
1720775302,565:   1777  78  70
1720775302,565:   -973  78  70
1720775302,565:   -715  78  70
1720775302,565:   2142  78  70
1720775302,565:   3803  78  70
1720775302,565:   2120  78  70
1720775302,597:   -557  78  70
1720775302,597:   -530  78  70
1720775302,597:   2176  78  70
1720775302,597:   3908  78  70
1720775302,597:   2242  78  70
1720775302,597:   -729  78  70
1720775302,597:  -1106  78  70
1720775302,597:   1549  78  70
1720775302,597:   3711  78  70
1720775302,597:   2586  78  70
1720775302,597:   -195  78  70
1720775302,597:   -760  78  70
1720775302,597:   1700  78  70
1720775302,597:   3873  78  70
1720775302,597:   2766  78  70
1720775302,628:   -287  78  70
1720775302,628:  -1285  78  70
1720775302,628:   1032  78  70
1720775302,628:   3559  78  70
1720775302,628:   2987  78  70
1720775302,628:    170  78  70
1720775302,628:   -998  78  70
1720775302,628:   1105  78  70
1720775302,628:   3655  78  70
1720775302,628:   3191  78  70
1720775302,628:    214  78  70
1720775302,628:  -1358  78  70
1720775302,628:    519  78  70
1720775302,628:   3320  78  70
1720775302,628:   3370  78  70
1720775302,660:    696  78  70
1720775302,660:   -995  78  70
1720775302,660:    640  78  70
1720775302,660:   3395  78  70
1720775302,660:   3528  78  70
1720775302,660:    717  78  70
1720775302,660:  -1372  78  70
1720775302,660:    -14  78  70
1720775302,660:   2947  78  70
1720775302,660:   3623  78  70
1720775302,660:   1213  78  70
1720775302,660:   -929  78  70
1720775302,660:    160  78  70
1720775302,660:   3002  78  70
1720775302,660:   3739  78  70
1720775302,660:   1245  78  70
1720775302,660:  -1251  78  70
1720775302,660:   -476  78  70
1720775302,660:   2495  78  70
1720775302,660:   3748  78  70
1720775302,660:   1709  78  70
1720775302,660:   -773  78  70
1720775302,660:   -261  78  70
1720775302,692:   2561  78  70
1720775302,692:   3884  78  70
1720775302,692:   1826  78  70
1720775302,692:   -976  78  70
1720775302,692:   -844  78  70
1720775302,692:   1981  78  70
1720775302,692:   3748  78  70
1720775302,724:   2180  78  70
1720775302,724:   -512  78  70
1720775302,724:   -602  78  70
1720775302,724:   2043  78  70
1720775302,724:   3838  78  70
1720775302,724:   2265  78  70
1720775302,724:   -721  78  70
1720775302,724:  -1209  78  70
1720775302,724:   1381  78  70
1720775302,724:   3599  78  70
1720775302,724:   2564  78  70
1720775302,724:   -228  78  70
1720775302,724:   -908  78  70
1720775302,724:   1472  78  70
1720775302,724:   3700  78  70
1720775302,755:   2716  78  70
1720775302,755:   -291  78  70
1720775302,755:  -1357  78  70
1720775302,755:    885  78  70
1720775302,755:   3441  78  70
1720775302,755:   2975  78  70
1720775302,755:    219  78  70
1720775302,755:  -1002  78  70
1720775302,755:   1003  78  70
1720775302,755:   3514  78  70
1720775302,755:   3088  78  70
1720775302,755:    143  78  70
1720775302,755:  -1466  78  70
1720775302,755:    348  78  70
1720775302,755:   3149  78  70
1720775302,787:   3271  78  70
1720775302,787:    659  78  70
1720775302,787:  -1051  78  70
1720775302,787:    519  78  70
1720775302,787:   3255  78  70
1720775302,787:   3445  78  70
1720775302,787:    698  78  70
1720775302,787:  -1405  78  70
1720775302,787:   -120  78  70
1720775302,787:   2796  78  70
1720775302,787:   3498  78  70
1720775302,787:   1136  78  70
1720775302,787:  -1009  78  70
1720775302,787:     37  78  70
1720775302,787:   2874  78  70
1720775302,787:   3674  78  70
1720775302,787:   1249  78  70
1720775302,787:  -1255  78  70
1720775302,787:   -546  78  70
1720775302,787:   2389  78  70
1720775302,787:   3683  78  70
1720775302,787:   1708  78  70
1720775302,787:   -768  78  70
1720775302,819:   -309  78  70
1720775302,819:   2473  78  70
1720775302,819:   3813  78  70
1720775302,819:   1795  78  70
1720775302,819:  -1008  78  70
1720775302,819:   -920  78  70
1720775302,819:   1883  78  70
1720775302,819:   3684  78  70
1720775302,819:   2162  78  70
1720775302,819:   -534  78  70
1720775302,819:   -665  78  70
1720775302,819:   1969  78  70
1720775302,819:   3820  78  70
1720775302,819:   2322  78  70
1720775302,819:   -645  78  70
1720775302,850:  -1177  78  70
1720775302,850:   1372  78  70
1720775302,850:   3602  78  70
1720775302,850:   2614  78  70
1720775302,850:   -159  78  70
1720775302,850:   -864  78  70
1720775302,850:   1491  78  70
1720775302,850:   3730  78  70
1720775302,850:   2772  78  70
1720775302,850:   -242  78  70
1720775302,850:  -1354  78  70
1720775302,850:    858  78  70
1720775302,850:   3435  78  70
1720775302,850:   3011  78  70
1720775302,850:    260  78  70
1720775302,882:   -997  78  70
1720775302,882:    987  78  70
1720775302,882:   3532  78  70
1720775302,882:   3162  78  70
1720775302,882:    227  78  70
1720775302,882:  -1427  78  70
1720775302,882:    346  78  70
1720775302,882:   3156  78  70
1720775302,882:   3315  78  70
1720775302,882:    709  78  70
1720775302,882:  -1038  78  70
1720775302,882:    505  78  70
1720775302,882:   3266  78  70
1720775302,882:   3505  78  70
1720775302,882:    772  78  70
1720775302,913:  -1365  78  70
1720775302,913:   -103  78  70
1720775302,913:   2850  78  70
1720775302,913:   3627  78  70
1720775302,913:   1307  78  70
1720775302,913:   -858  78  70
1720775302,913:    149  78  70
1720775302,913:   2978  78  70
1720775302,913:   3798  78  70
1720775302,913:   1375  78  70
1720775302,913:  -1175  78  70
1720775302,913:   -526  78  70
1720775302,913:   2386  78  70
1720775302,913:   3692  78  70
1720775302,913:   1720  78  70
1720775302,945:   -785  78  70
1720775302,945:   -356  78  70
1720775302,945:   2445  78  70
1720775302,945:   3846  78  70
1720775302,945:   1868  78  70
1720775302,945:   -963  78  70
1720775302,945:   -934  78  70
1720775302,945:   1847  78  70
1720775302,945:   3680  78  70
1720775302,945:   2193  78  70
1720775302,945:   -518  78  70
1720775302,945:   -701  78  70
1720775302,945:   1911  78  70
1720775302,945:   3788  78  70
1720775302,945:   2319  78  70
1720775302,975:   -668  78  70
1720775302,975:  -1247  78  70
1720775302,975:   1296  78  70
1720775302,975:   3585  78  70
1720775302,975:   2663  78  70
1720775302,975:   -102  78  70
1720775302,975:   -847  78  70
1720775302,975:   1511  78  70
1720775302,975:   3837  78  70
1720775302,975:   2988  78  70
1720775302,975:    -32  78  70
1720775302,975:  -1331  78  70
1720775302,975:    572  78  70
1720775302,975:   2815  78  70
1720775302,975:   2052  78  70
1720775302,975:  -1095  78  70
1720775302,975:  -2797  78  70
1720775302,975:  -1150  78  70
1720775302,975:   1360  78  70
1720775302,975:   1332  78  70
1720775302,975:   -954  78  70
1720775302,975:  -1713  78  70
1720775303,006:   1294  78  70
1720775303,006:   5797  78  70
1720775303,006:   8033  78  70
1720775303,006:   7591  78  70
1720775303,006:   7815  78  70
1720775303,006:  11123  78  70
1720775303,006:  15576  78  70
1720775303,006:  17409  78  70
1720775303,006:  15877  78  70
1720775303,006:  14255  78  70
1720775303,006:  15358  78  70
1720775303,006:  17710  78  70
1720775303,006:  17533  78  70
1720775303,006:  13716  78  70
1720775303,006:   9324  78  70
1720775303,037:   7593  81  74
1720775303,037:   7747  81  74
1720775303,037:   6406  81  74
1720775303,037:   2327  81  74
1720775303,037:  -1680  81  74
1720775303,037:  -2425  81  74
1720775303,037:   -629  81  74
1720775303,037:    145  81  74
1720775303,037:  -1750  81  74
1720775303,037:  -3881  81  74
1720775303,037:  -3149  81  74
1720775303,037:   -282  81  74
1720775303,037:    997  81  74
1720775303,037:  -1175  81  74
1720775303,037:  -4211  81  74
1720775303,069:  -4377  81  74
1720775303,069:  -1764  81  74
1720775303,069:    -59  81  74
1720775303,069:  -1638  81  74
1720775303,069:  -4416  81  74
1720775303,069:  -4617  81  74
1720775303,069:  -1929  81  74
1720775303,069:    124  81  74
1720775303,069:  -1123  81  74
1720775303,069:  -3931  81  74
1720775303,069:  -4422  81  74
1720775303,069:  -1876  81  74
1720775303,069:    358  81  74
1720775303,069:   -640  81  74
1720775303,069:  -3460  81  74
1720775303,100:  -4185  81  74
1720775303,100:  -1706  81  74
1720775303,100:    797  81  74
1720775303,100:    104  81  74
1720775303,100:  -2801  81  74
1720775303,100:  -3949  81  74
1720775303,100:  -1761  81  74
1720775303,100:    901  81  74
1720775303,100:    605  81  74
1720775303,100:  -2102  81  74
1720775303,100:  -3396  81  74
1720775303,100:  -1382  81  74
1720775303,100:   1341  81  74
1720775303,100:   1196  81  74
1720775303,100:  -1646  81  74
1720775303,131:  -3369  81  74
1720775303,131:  -1661  81  74
1720775303,131:   1229  81  74
1720775303,131:   1554  81  74
1720775303,131:   -974  81  74
1720775303,131:  -2787  81  74
1720775303,131:  -1301  81  74
1720775303,131:   1558  81  74
1720775303,131:   2000  81  74
1720775303,131:   -615  81  74
1720775303,131:  -2807  81  74
1720775303,131:  -1642  81  74
1720775303,131:   1343  81  74
1720775303,131:   2259  81  74
1720775303,131:     19  81  74
1720775303,163:  -2217  81  74
1720775303,163:  -1307  81  74
1720775303,163:   1565  81  74
1720775303,163:   2558  81  74
1720775303,163:    258  81  74
1720775303,163:  -2328  81  74
1720775303,163:  -1761  81  74
1720775303,163:   1202  81  74
1720775303,163:   2697  81  74
1720775303,163:    872  81  74
1720775303,163:  -1666  81  74
1720775303,163:  -1365  81  74
1720775303,163:   1408  81  74
1720775303,163:   2929  81  74
1720775303,163:   1085  81  74
1720775303,163:  -1745  81  74
1720775303,163:  -1803  81  74
1720775303,163:    966  81  74
1720775303,163:   2914  81  74
1720775303,163:   1546  81  74
1720775303,163:  -1173  81  74
1720775303,194:  -1445  81  74
1720775303,194:   1153  81  74
1720775303,194:   3139  81  74
1720775303,194:   1779  81  74
1720775303,194:  -1239  81  74
1720775303,194:  -1944  81  74
1720775303,194:    557  81  74
1720775303,194:   2957  81  74
1720775303,194:   2160  81  74
1720775303,194:   -634  81  74
1720775303,194:  -1533  81  74
1720775303,194:    731  81  74
1720775303,194:   3114  81  74
1720775303,194:   2366  81  74
1720775303,225:   -640  81  74
1720775303,225:  -1940  81  74
1720775303,225:    163  81  74
1720775303,225:   2881  81  74
1720775303,225:   2684  81  74
1720775303,225:    -38  81  74
1720775303,225:  -1487  81  74
1720775303,225:    379  81  74
1720775303,225:   3078  81  74
1720775303,225:   2985  81  74
1720775303,225:    127  81  74
1720775303,225:  -1728  81  74
1720775303,225:   -150  81  74
1720775303,225:   2737  81  74
1720775303,225:   3152  81  74
1720775303,257:    658  81  74
1720775303,257:  -1254  81  74
1720775303,257:     93  81  74
1720775303,257:   2910  81  74
1720775303,257:   3415  81  74
1720775303,257:    847  81  74
1720775303,257:  -1401  81  74
1720775303,257:   -330  81  74
1720775303,257:   2650  81  74
1720775303,257:   3671  81  74
1720775303,257:   1526  81  74
1720775303,257:   -730  81  74
1720775303,257:     80  81  74
1720775303,257:   2905  81  74
1720775303,257:   3948  81  74
1720775303,288:   1711  81  74
1720775303,288:   -901  81  74
1720775303,288:   -429  81  74
1720775303,288:   2475  81  74
1720775303,288:   3999  81  74
1720775303,288:   2213  81  74
1720775303,288:   -364  81  74
1720775303,288:   -151  81  74
1720775303,288:   2587  81  74
1720775303,288:   4154  81  74
1720775303,288:   2334  81  74
1720775303,288:   -590  81  74
1720775303,288:   -809  81  74
1720775303,288:   1876  81  74
1720775303,288:   3874  81  74
1720775303,320:   2583  81  74
1720775303,320:   -170  81  74
1720775303,320:   -578  81  74
1720775303,320:   1928  81  74
1720775303,320:   3956  81  74
1720775303,320:   2693  81  74
1720775303,320:   -317  81  74
1720775303,320:  -1128  81  74
1720775303,320:   1266  81  74
1720775303,320:   3653  81  74
1720775303,320:   2903  81  74
1720775303,320:    106  81  74
1720775303,320:   -866  81  74
1720775303,320:   1343  81  74
1720775303,320:   3762  81  74
1720775303,320:   3092  81  74
1720775303,320:     97  81  74
1720775303,320:  -1288  81  74
1720775303,320:    721  81  74
1720775303,320:   3424  81  74
1720775303,320:   3277  81  74
1720775303,320:    585  81  74
1720775303,352:   -894  81  74
1720775303,352:    925  81  74
1720775303,352:   3612  81  74
1720775303,352:   3524  81  74
1720775303,352:    630  81  74
1720775303,352:  -1301  81  74
1720775303,352:    220  81  74
1720775303,352:   3100  81  74
1720775303,382:   3518  81  74
1720775303,382:    981  81  74
1720775303,382:  -1005  81  74
1720775303,382:    309  81  74
1720775303,382:   3159  81  74
1720775303,382:   3694  81  74
1720775303,382:   1072  81  74
1720775303,382:  -1291  81  74
1720775303,382:   -300  81  74
1720775303,382:   2674  81  74
1720775303,382:   3698  81  74
1720775303,382:   1487  81  74
1720775303,382:   -877  81  74
1720775303,382:   -105  81  74
1720775303,382:   2792  81  74
1720775303,414:   3917  81  74
1720775303,414:   1652  81  74
1720775303,414:  -1090  81  74
1720775303,414:   -714  81  74
1720775303,414:   2213  81  74
1720775303,414:   3805  81  74
1720775303,414:   2014  81  74
1720775303,414:   -646  81  74
1720775303,414:   -475  81  74
1720775303,414:   2329  81  74
1720775303,414:   3992  81  74
1720775303,414:   2175  81  74
1720775303,414:   -836  81  74
1720775303,414:  -1099  81  74
1720775303,414:   1659  81  74
1720775303,414:   3759  81  74
1720775303,414:   2466  81  74
1720775303,414:   -384  81  74
1720775303,414:   -835  81  74
1720775303,414:   1771  81  74
1720775303,414:   3947  81  74
1720775303,414:   2716  81  74
1720775303,445:   -400  81  74
1720775303,445:  -1306  81  74
1720775303,445:   1128  81  74
1720775303,445:   3632  81  74
1720775303,445:   2925  81  74
1720775303,445:     56  81  74
1720775303,445:   -997  81  74
1720775303,445:   1231  81  74
1720775303,445:   3726  81  74
1720775303,445:   3063  81  74
1720775303,445:    -28  81  74
1720775303,445:  -1498  81  74
1720775303,445:    550  81  74
1720775303,445:   3369  81  74
1720775303,445:   3268  81  74
1720775303,477:    486  81  74
1720775303,477:  -1118  81  74
1720775303,477:    680  81  74
1720775303,477:   3457  81  74
1720775303,477:   3442  81  74
1720775303,477:    516  81  74
1720775303,477:  -1492  81  74
1720775303,477:     38  81  74
1720775303,477:   3037  81  74
1720775303,477:   3563  81  74
1720775303,477:   1016  81  74
1720775303,477:  -1064  81  74
1720775303,477:    212  81  74
1720775303,477:   3128  81  74
1720775303,477:   3740  81  74
1720775303,508:   1093  81  74
1720775303,508:  -1381  81  74
1720775303,508:   -450  81  74
1720775303,508:   2586  81  74
1720775303,508:   3716  81  74
1720775303,508:   1526  81  74
1720775303,508:   -913  81  74
1720775303,508:   -201  81  74
1720775303,508:   2724  81  74
1720775303,508:   3915  81  74
1720775303,508:   1648  81  74
1720775303,508:  -1172  81  74
1720775303,508:   -847  81  74
1720775303,508:   2129  81  74
1720775303,508:   3810  81  74
1720775303,539:   2029  81  74
1720775303,539:   -726  81  74
1720775303,539:   -650  81  74
1720775303,539:   2175  81  74
1720775303,539:   3950  81  74
1720775303,539:   2216  81  74
1720775303,539:   -819  81  74
1720775303,539:  -1155  81  74
1720775303,539:   1594  81  74
1720775303,539:   3769  81  74
1720775303,539:   2548  81  74
1720775303,539:   -328  81  74
1720775303,539:   -887  81  74
1720775303,539:   1626  81  74
1720775303,539:   3783  81  74
1720775303,571:   2578  81  74
1720775303,571:   -534  81  74
1720775303,571:  -1471  81  74
1720775303,571:    955  81  74
1720775303,571:   3514  81  74
1720775303,571:   2886  81  74
1720775303,571:     42  81  74
1720775303,571:  -1058  81  74
1720775303,571:   1120  81  74
1720775303,571:   3640  81  74
1720775303,571:   3068  81  74
1720775303,571:     51  81  74
1720775303,571:  -1427  81  74
1720775303,571:    564  81  74
1720775303,571:   3362  81  74
1720775303,603:   3314  81  74
1720775303,603:    596  81  74
1720775303,603:  -1013  81  74
1720775303,603:    719  81  74
1720775303,603:   3444  81  74
1720775303,603:   3444  81  74
1720775303,603:    565  81  74
1720775303,603:  -1442  81  74
1720775303,603:     46  81  74
1720775303,603:   3032  81  74
1720775303,603:   3625  81  74
1720775303,603:   1166  81  74
1720775303,603:   -903  81  74
1720775303,603:    286  81  74
1720775303,603:   3113  81  74
1720775303,634:   3730  81  74
1720775303,634:   1161  81  74
1720775303,634:  -1269  81  74
1720775303,634:   -375  81  74
1720775303,634:   2612  81  74
1720775303,634:   3763  81  74
1720775303,634:   1641  81  74
1720775303,634:   -792  81  74
1720775303,634:   -172  81  74
1720775303,634:   2666  81  74
1720775303,634:   3887  81  74
1720775303,634:   1751  81  74
1720775303,634:   -981  81  74
1720775303,634:   -696  81  74
1720775303,634:   2193  81  74
1720775303,634:   3878  81  74
1720775303,634:   2212  81  74
1720775303,634:   -457  81  74
1720775303,634:   -442  81  74
1720775303,634:   2225  81  74
1720775303,634:   3905  81  74
1720775303,634:   2211  81  74
1720775303,634:   -741  81  74
1720775303,666:  -1071  81  74
1720775303,666:   1613  81  74
1720775303,666:   3763  81  74
1720775303,666:   2611  81  74
1720775303,666:   -176  81  74
1720775303,666:   -728  81  74
1720775303,666:   1729  81  74
1720775303,666:   3864  81  74
1720775303,666:   2712  81  74
1720775303,666:   -346  81  74
1720775303,666:  -1307  81  74
1720775303,666:   1043  81  74
1720775303,666:   3565  81  74
1720775303,666:   2971  81  74
1720775303,666:    163  81  74
1720775303,698:   -963  81  74
1720775303,698:   1161  81  74
1720775303,698:   3668  81  74
1720775303,698:   3127  81  74
1720775303,698:    102  81  74
1720775303,698:  -1461  81  74
