timestamp: ADC HeartRate4sAverage HeartRate30sAverage
1720435122,451:    180  90  91
1720435122,451:    177  90  91
1720435122,451:    179  90  91
1720435122,451:    178  90  91
1720435122,451:    171  90  91
1720435122,451:    162  90  91
1720435122,451:    157  90  91
1720435122,451:    157  90  91
1720435122,451:    157  90  91
1720435122,451:    154  90  91
1720435122,451:    151  90  91
1720435122,451:    150  90  91
1720435122,451:    151  90  91
1720435122,451:    148  90  91
1720435122,451:    142  90  91
1720435122,482:    137  90  91
1720435122,482:    138  90  91
1720435122,482:    139  90  91
1720435122,482:    137  90  91
1720435122,482:    132  90  91
1720435122,482:    130  90  91
1720435122,482:    136  90  91
1720435122,482:    145  90  91
1720435122,482:    148  90  91
1720435122,482:    144  90  91
1720435122,482:    137  90  91
1720435122,482:    134  90  91
1720435122,482:    132  90  91
1720435122,482:    127  90  91
1720435122,482:    118  90  91
1720435122,514:    107  90  91
1720435122,514:    100  90  91
1720435122,514:     99  90  91
1720435122,514:    102  90  91
1720435122,514:    107  90  91
1720435122,514:    110  90  91
1720435122,514:    112  90  91
1720435122,514:    113  90  91
1720435122,514:    112  90  91
1720435122,514:    111  90  91
1720435122,514:    109  90  91
1720435122,514:    103  90  91
1720435122,514:     94  90  91
1720435122,514:     84  90  91
1720435122,514:     73  90  91
1720435122,514:     61  90  91
1720435122,514:     48  90  91
1720435122,514:     34  90  91
1720435122,514:     24  90  91
1720435122,514:     16  90  91
1720435122,514:      7  90  91
1720435122,514:     -6  90  91
1720435122,546:    -16  90  91
1720435122,546:    -11  90  91
1720435122,546:     13  90  91
1720435122,546:     47  90  91
1720435122,546:     76  90  91
1720435122,546:     91  90  91
1720435122,546:    100  90  91
1720435122,546:    114  90  91
1720435122,546:    135  90  91
1720435122,546:    154  90  91
1720435122,546:    153  90  91
1720435122,546:    128  90  91
1720435122,546:     93  90  91
1720435122,578:     67  90  91
1720435122,578:     62  90  91
1720435122,578:     72  90  91
1720435122,578:     83  90  91
1720435122,578:     86  90  91
1720435122,578:     90  90  91
1720435122,578:    106  90  91
1720435122,578:    132  90  91
1720435122,578:    156  90  91
1720435122,578:    163  90  91
1720435122,578:    152  90  91
1720435122,578:    132  90  91
1720435122,578:    111  90  91
1720435122,578:     92  90  91
1720435122,578:     74  90  91
1720435122,610:     60  90  91
1720435122,610:     53  90  91
1720435122,610:     54  90  91
1720435122,610:     59  90  91
1720435122,610:     66  90  91
1720435122,610:     71  90  91
1720435122,610:     77  90  91
1720435122,610:     84  90  91
1720435122,610:     92  90  91
1720435122,610:     98  90  91
1720435122,610:     96  90  91
1720435122,610:     85  90  91
1720435122,610:     66  90  91
1720435122,610:     46  90  91
1720435122,610:     31  90  91
1720435122,642:     24  90  91
1720435122,642:     20  90  91
1720435122,642:     14  90  91
1720435122,642:      9  90  91
1720435122,642:     12  90  91
1720435122,642:     29  90  91
1720435122,642:     56  90  91
1720435122,642:     84  90  91
1720435122,642:    100  90  91
1720435122,642:     88  90  91
1720435122,642:     39  90  91
1720435122,642:    -48  90  91
1720435122,642:   -173  90  91
1720435122,642:   -348  90  91
1720435122,642:   -584  90  91
1720435122,642:   -859  90  91
1720435122,642:  -1110  90  91
1720435122,642:  -1256  90  91
1720435122,642:  -1251  90  91
1720435122,642:  -1094  90  91
1720435122,642:   -777  90  91
1720435122,642:   -237  90  91
1720435122,674:    606  90  91
1720435122,674:   1743  90  91
1720435122,674:   3037  90  91
1720435122,674:   4287  90  91
1720435122,674:   5356  90  91
1720435122,674:   6211  90  91
1720435122,674:   6852  90  91
1720435122,674:   7235  90  91
1720435122,674:   7277  90  91
1720435122,674:   6943  90  91
1720435122,674:   6296  90  91
1720435122,674:   5469  90  91
1720435122,674:   4592  90  91
1720435122,674:   3744  90  91
1720435122,674:   2963  90  91
1720435122,706:   2264  88  90
1720435122,706:   1656  88  90
1720435122,706:   1139  88  90
1720435122,706:    704  88  90
1720435122,706:    336  88  90
1720435122,706:     10  88  90
1720435122,706:   -296  88  90
1720435122,706:   -594  88  90
1720435122,706:   -878  88  90
1720435122,706:  -1136  88  90
1720435122,706:  -1355  88  90
1720435122,706:  -1519  88  90
1720435122,706:  -1618  88  90
1720435122,706:  -1646  88  90
1720435122,706:  -1624  88  90
1720435122,738:  -1585  88  90
1720435122,738:  -1555  88  90
1720435122,738:  -1541  88  90
1720435122,738:  -1537  88  90
1720435122,738:  -1538  88  90
1720435122,738:  -1546  88  90
1720435122,738:  -1562  88  90
1720435122,738:  -1572  88  90
1720435122,738:  -1564  88  90
1720435122,738:  -1534  88  90
1720435122,738:  -1488  88  90
1720435122,738:  -1439  88  90
1720435122,738:  -1395  88  90
1720435122,738:  -1361  88  90
1720435122,738:  -1337  88  90
1720435122,769:  -1324  88  90
1720435122,769:  -1317  88  90
1720435122,769:  -1310  88  90
1720435122,769:  -1291  88  90
1720435122,769:  -1256  88  90
1720435122,769:  -1210  88  90
1720435122,769:  -1165  88  90
1720435122,769:  -1130  88  90
1720435122,769:  -1107  88  90
1720435122,769:  -1092  88  90
1720435122,769:  -1079  88  90
1720435122,769:  -1064  88  90
1720435122,769:  -1049  88  90
1720435122,769:  -1031  88  90
1720435122,769:  -1012  88  90
1720435122,801:   -993  88  90
1720435122,801:   -977  88  90
1720435122,801:   -964  88  90
1720435122,801:   -951  88  90
1720435122,801:   -938  88  90
1720435122,801:   -926  88  90
1720435122,801:   -915  88  90
1720435122,801:   -906  88  90
1720435122,801:   -898  88  90
1720435122,801:   -893  88  90
1720435122,801:   -893  88  90
1720435122,801:   -893  88  90
1720435122,801:   -891  88  90
1720435122,801:   -884  88  90
1720435122,801:   -880  88  90
1720435122,832:   -884  88  90
1720435122,832:   -892  88  90
1720435122,832:   -896  88  90
1720435122,832:   -893  88  90
1720435122,832:   -889  88  90
1720435122,832:   -890  88  90
1720435122,832:   -896  88  90
1720435122,832:   -902  88  90
1720435122,832:   -907  88  90
1720435122,832:   -914  88  90
1720435122,832:   -929  88  90
1720435122,832:   -946  88  90
1720435122,832:   -955  88  90
1720435122,832:   -953  88  90
1720435122,832:   -947  88  90
1720435122,832:   -947  88  90
1720435122,832:   -950  88  90
1720435122,832:   -948  88  90
1720435122,832:   -932  88  90
1720435122,832:   -905  88  90
1720435122,832:   -880  88  90
1720435122,832:   -865  88  90
1720435122,832:   -856  88  90
1720435122,863:   -843  88  90
1720435122,863:   -819  88  90
1720435122,863:   -791  88  90
1720435122,863:   -770  88  90
1720435122,863:   -756  88  90
1720435122,863:   -741  88  90
1720435122,863:   -717  88  90
1720435122,863:   -683  88  90
1720435122,863:   -645  88  90
1720435122,863:   -609  88  90
1720435122,863:   -575  88  90
1720435122,863:   -537  88  90
1720435122,863:   -493  88  90
1720435122,863:   -443  88  90
1720435122,863:   -394  88  90
1720435122,894:   -348  88  90
1720435122,894:   -307  88  90
1720435122,894:   -264  88  90
1720435122,894:   -217  88  90
1720435122,894:   -171  88  90
1720435122,894:   -129  88  90
1720435122,894:    -89  88  90
1720435122,926:    -43  88  90
1720435122,926:     11  88  90
1720435122,926:     64  88  90
1720435122,926:    107  88  90
1720435122,926:    142  88  90
1720435122,926:    182  88  90
1720435122,926:    230  88  90
1720435122,926:    274  88  90
1720435122,926:    300  88  90
1720435122,926:    307  88  90
1720435122,926:    315  88  90
1720435122,926:    336  88  90
1720435122,926:    365  88  90
1720435122,926:    384  88  90
1720435122,926:    388  88  90
1720435122,926:    388  88  90
1720435122,926:    396  88  90
1720435122,926:    413  88  90
1720435122,926:    425  88  90
1720435122,926:    427  88  90
1720435122,926:    422  88  90
1720435122,926:    418  88  90
1720435122,926:    416  88  90
1720435122,958:    410  88  90
1720435122,958:    397  88  90
1720435122,958:    382  88  90
1720435122,958:    372  88  90
1720435122,958:    368  88  90
1720435122,958:    364  88  90
1720435122,958:    357  88  90
1720435122,958:    351  88  90
1720435122,958:    350  88  90
1720435122,958:    354  88  90
1720435122,958:    358  88  90
1720435122,958:    355  88  90
1720435122,958:    347  88  90
1720435122,958:    338  88  90
1720435122,958:    332  88  90
1720435122,990:    325  88  90
1720435122,990:    314  88  90
1720435122,990:    297  88  90
1720435122,990:    281  88  90
1720435122,990:    272  88  90
1720435122,990:    269  88  90
1720435122,990:    271  88  90
1720435122,990:    270  88  90
1720435122,990:    263  88  90
1720435122,990:    250  88  90
1720435122,990:    235  88  90
1720435122,990:    226  88  90
1720435122,990:    225  88  90
1720435122,990:    226  88  90
1720435122,990:    219  88  90
1720435123,020:    203  88  90
1720435123,020:    184  88  90
1720435123,020:    171  88  90
1720435123,020:    169  88  90
1720435123,020:    172  88  90
1720435123,020:    175  88  90
1720435123,020:    172  88  90
1720435123,020:    164  88  90
1720435123,020:    156  88  90
1720435123,020:    148  88  90
1720435123,020:    142  88  90
1720435123,020:    137  88  90
1720435123,020:    133  88  90
1720435123,020:    128  88  90
1720435123,020:    123  88  90
1720435123,052:    115  88  90
1720435123,052:    104  88  90
1720435123,052:     91  88  90
1720435123,052:     81  88  90
1720435123,052:     80  88  90
1720435123,052:     85  88  90
1720435123,052:     89  88  90
1720435123,052:     87  88  90
1720435123,052:     78  88  90
1720435123,052:     68  88  90
1720435123,052:     62  88  90
1720435123,052:     62  88  90
1720435123,052:     62  88  90
1720435123,052:     57  88  90
1720435123,052:     49  88  90
1720435123,083:     40  88  90
1720435123,083:     35  88  90
1720435123,083:     34  88  90
1720435123,083:     34  88  90
1720435123,083:     34  88  90
1720435123,083:     31  88  90
1720435123,083:     30  88  90
1720435123,083:     31  88  90
1720435123,083:     35  88  90
1720435123,083:     39  88  90
1720435123,083:     43  88  90
1720435123,083:     47  88  90
1720435123,083:     54  88  90
1720435123,083:     62  88  90
1720435123,083:     67  88  90
1720435123,083:     65  88  90
1720435123,083:     62  88  90
1720435123,083:     61  88  90
1720435123,083:     65  88  90
1720435123,083:     68  88  90
1720435123,083:     68  88  90
1720435123,083:     67  88  90
1720435123,115:     67  88  90
1720435123,115:     70  88  90
1720435123,115:     71  88  90
1720435123,115:     68  88  90
1720435123,115:     62  88  90
1720435123,115:     59  88  90
1720435123,115:     58  88  90
1720435123,115:     57  88  90
1720435123,147:     54  88  90
1720435123,147:     52  88  90
1720435123,147:     51  88  90
1720435123,147:     52  88  90
1720435123,147:     52  88  90
1720435123,147:     52  88  90
1720435123,147:     53  88  90
1720435123,147:     57  88  90
1720435123,147:     61  88  90
1720435123,147:     63  88  90
1720435123,147:     59  88  90
1720435123,147:     54  88  90
1720435123,147:     50  88  90
1720435123,147:     49  88  90
1720435123,147:     50  88  90
1720435123,147:     50  88  90
1720435123,147:     45  88  90
1720435123,147:     36  88  90
1720435123,147:     29  88  90
1720435123,147:     28  88  90
1720435123,147:     33  88  90
1720435123,147:     37  88  90
1720435123,179:     34  88  90
1720435123,179:     25  88  90
1720435123,179:     18  88  90
1720435123,179:     19  88  90
1720435123,179:     24  88  90
1720435123,179:     28  88  90
1720435123,179:     25  88  90
1720435123,179:     22  88  90
1720435123,179:     24  88  90
1720435123,179:     29  88  90
1720435123,179:     31  88  90
1720435123,179:     30  88  90
1720435123,179:     29  88  90
1720435123,179:     32  88  90
1720435123,179:     35  88  90
1720435123,211:     33  88  90
1720435123,211:     25  88  90
1720435123,211:     17  88  90
1720435123,211:     13  88  90
1720435123,211:     14  88  90
1720435123,211:     16  88  90
1720435123,211:     11  88  90
1720435123,211:      0  88  90
1720435123,211:    -10  88  90
1720435123,211:    -13  88  90
1720435123,211:     -9  88  90
1720435123,211:     -6  88  90
1720435123,211:    -11  88  90
1720435123,211:    -25  88  90
1720435123,211:    -39  88  90
1720435123,242:    -46  88  90
1720435123,242:    -48  88  90
1720435123,242:    -50  88  90
1720435123,242:    -52  88  90
1720435123,242:    -48  88  90
1720435123,242:    -34  88  90
1720435123,242:    -14  88  90
1720435123,242:      4  88  90
1720435123,242:     17  88  90
1720435123,242:     28  88  90
1720435123,242:     41  88  90
1720435123,242:     52  88  90
1720435123,242:     53  88  90
1720435123,242:     43  88  90
1720435123,242:     30  88  90
1720435123,242:     21  88  90
1720435123,242:     17  88  90
1720435123,242:     16  88  90
1720435123,242:     18  88  90
1720435123,242:     24  88  90
1720435123,242:     38  88  90
1720435123,242:     56  88  90
1720435123,242:     74  88  90
1720435123,274:     90  88  90
1720435123,274:    101  88  90
1720435123,274:    105  88  90
1720435123,274:     99  88  90
1720435123,274:     83  88  90
1720435123,274:     63  88  90
1720435123,274:     44  88  90
1720435123,306:     27  88  90
1720435123,306:     12  88  90
1720435123,306:     -2  88  90
1720435123,306:    -11  88  90
1720435123,306:    -10  88  90
1720435123,306:      0  88  90
1720435123,306:     14  88  90
1720435123,306:     25  88  90
1720435123,306:     30  88  90
1720435123,306:     32  88  90
1720435123,306:     32  88  90
1720435123,306:     30  88  90
1720435123,306:     24  88  90
1720435123,306:     15  88  90
1720435123,306:      4  88  90
1720435123,337:     -8  88  90
1720435123,337:    -22  88  90
1720435123,337:    -37  88  90
1720435123,337:    -49  88  90
1720435123,337:    -52  88  90
1720435123,337:    -45  88  90
1720435123,337:    -27  88  90
1720435123,337:     -3  88  90
1720435123,337:     20  88  90
1720435123,337:     38  88  90
1720435123,337:     43  88  90
1720435123,337:     26  88  90
1720435123,337:    -28  88  90
1720435123,337:   -128  88  90
1720435123,337:   -282  88  90
1720435123,368:   -488  88  90
1720435123,368:   -734  88  90
1720435123,368:   -989  88  90
1720435123,368:  -1207  88  90
1720435123,368:  -1333  88  90
1720435123,368:  -1325  88  90
1720435123,368:  -1149  88  90
1720435123,368:   -769  88  90
1720435123,368:   -140  88  90
1720435123,368:    758  88  90
1720435123,368:   1876  88  90
1720435123,368:   3092  88  90
1720435123,368:   4258  88  90
1720435123,368:   5258  88  90
1720435123,368:   6033  88  90
1720435123,368:   6548  88  90
1720435123,368:   6761  88  90
1720435123,368:   6643  88  90
1720435123,368:   6210  88  90
1720435123,368:   5543  88  90
1720435123,368:   4755  88  90
1720435123,368:   3943  88  90
1720435123,368:   3171  88  90
1720435123,400:   2477  87  89
1720435123,400:   1882  87  89
1720435123,400:   1391  87  89
1720435123,400:    987  87  89
1720435123,400:    643  87  89
1720435123,400:    330  87  89
1720435123,400:     30  87  89
1720435123,400:   -267  87  89
1720435123,400:   -562  87  89
1720435123,400:   -847  87  89
1720435123,400:  -1103  87  89
1720435123,400:  -1306  87  89
1720435123,400:  -1446  87  89
1720435123,400:  -1527  87  89
1720435123,400:  -1556  87  89
1720435123,432:  -1549  87  89
1720435123,432:  -1518  87  89
1720435123,432:  -1481  87  89
1720435123,432:  -1458  87  89
1720435123,432:  -1458  87  89
1720435123,432:  -1479  87  89
1720435123,432:  -1509  87  89
1720435123,432:  -1532  87  89
1720435123,432:  -1542  87  89
1720435123,432:  -1530  87  89
1720435123,432:  -1494  87  89
1720435123,432:  -1439  87  89
1720435123,432:  -1379  87  89
1720435123,432:  -1331  87  89
1720435123,432:  -1306  87  89
1720435123,464:  -1299  87  89
1720435123,464:  -1300  87  89
1720435123,464:  -1296  87  89
1720435123,464:  -1278  87  89
1720435123,464:  -1246  87  89
1720435123,464:  -1208  87  89
1720435123,464:  -1174  87  89
1720435123,464:  -1146  87  89
1720435123,464:  -1123  87  89
1720435123,464:  -1100  87  89
1720435123,464:  -1079  87  89
1720435123,464:  -1062  87  89
1720435123,464:  -1050  87  89
1720435123,464:  -1035  87  89
1720435123,464:  -1014  87  89
1720435123,496:   -988  87  89
1720435123,496:   -966  87  89
1720435123,496:   -947  87  89
1720435123,496:   -930  87  89
1720435123,496:   -913  87  89
1720435123,496:   -902  87  89
1720435123,496:   -900  87  89
1720435123,496:   -903  87  89
1720435123,496:   -905  87  89
1720435123,496:   -902  87  89
1720435123,496:   -896  87  89
1720435123,496:   -895  87  89
1720435123,496:   -897  87  89
1720435123,496:   -897  87  89
1720435123,496:   -893  87  89
1720435123,528:   -888  87  89
1720435123,528:   -888  87  89
1720435123,528:   -892  87  89
1720435123,528:   -896  87  89
1720435123,528:   -897  87  89
1720435123,528:   -896  87  89
1720435123,528:   -899  87  89
1720435123,528:   -909  87  89
1720435123,528:   -922  87  89
1720435123,528:   -932  87  89
1720435123,528:   -938  87  89
1720435123,528:   -941  87  89
1720435123,528:   -946  87  89
1720435123,528:   -954  87  89
1720435123,528:   -961  87  89
1720435123,528:   -966  87  89
1720435123,528:   -968  87  89
1720435123,528:   -968  87  89
1720435123,528:   -964  87  89
1720435123,528:   -954  87  89
1720435123,528:   -937  87  89
1720435123,559:   -920  87  89
1720435123,559:   -908  87  89
1720435123,559:   -896  87  89
1720435123,559:   -877  87  89
1720435123,559:   -847  87  89
1720435123,559:   -816  87  89
1720435123,559:   -791  87  89
1720435123,559:   -773  87  89
1720435123,559:   -752  87  89
1720435123,559:   -722  87  89
1720435123,559:   -685  87  89
1720435123,559:   -649  87  89
1720435123,559:   -616  87  89
1720435123,591:   -584  87  89
1720435123,591:   -547  87  89
1720435123,591:   -504  87  89
1720435123,591:   -458  87  89
1720435123,591:   -411  87  89
1720435123,591:   -367  87  89
1720435123,591:   -328  87  89
1720435123,591:   -289  87  89
1720435123,591:   -244  87  89
1720435123,591:   -188  87  89
1720435123,591:   -127  87  89
1720435123,591:    -73  87  89
1720435123,591:    -26  87  89
1720435123,591:     21  87  89
1720435123,591:     73  87  89
1720435123,623:    125  87  89
1720435123,623:    165  87  89
1720435123,623:    193  87  89
1720435123,623:    218  87  89
1720435123,623:    249  87  89
1720435123,623:    282  87  89
1720435123,623:    307  87  89
1720435123,623:    321  87  89
1720435123,623:    333  87  89
1720435123,623:    350  87  89
1720435123,623:    372  87  89
1720435123,623:    393  87  89
1720435123,623:    410  87  89
1720435123,623:    421  87  89
1720435123,623:    426  87  89
1720435123,623:    427  87  89
1720435123,623:    425  87  89
1720435123,623:    426  87  89
1720435123,623:    432  87  89
1720435123,623:    437  87  89
1720435123,623:    434  87  89
1720435123,623:    420  87  89
1720435123,623:    404  87  89
1720435123,655:    393  87  89
1720435123,655:    391  87  89
1720435123,655:    390  87  89
1720435123,655:    382  87  89
1720435123,655:    369  87  89
1720435123,655:    357  87  89
1720435123,655:    352  87  89
1720435123,655:    352  87  89
1720435123,655:    350  87  89
1720435123,655:    344  87  89
1720435123,655:    337  87  89
1720435123,655:    334  87  89
1720435123,655:    334  87  89
1720435123,655:    332  87  89
1720435123,655:    323  87  89
1720435123,686:    313  87  89
1720435123,686:    306  87  89
1720435123,686:    304  87  89
1720435123,686:    304  87  89
1720435123,686:    299  87  89
1720435123,686:    289  87  89
1720435123,686:    274  87  89
1720435123,717:    257  87  89
1720435123,717:    242  87  89
1720435123,717:    231  87  89
1720435123,717:    222  87  89
1720435123,717:    211  87  89
1720435123,717:    200  87  89
1720435123,717:    189  87  89
1720435123,717:    182  87  89
1720435123,717:    176  87  89
1720435123,717:    171  87  89
1720435123,717:    169  87  89
1720435123,717:    169  87  89
1720435123,717:    170  87  89
1720435123,717:    165  87  89
1720435123,717:    155  87  89
1720435123,717:    145  87  89
1720435123,717:    140  87  89
1720435123,717:    139  87  89
1720435123,717:    135  87  89
1720435123,717:    127  87  89
1720435123,717:    119  87  89
1720435123,717:    115  87  89
1720435123,717:    115  87  89
1720435123,749:    116  87  89
1720435123,749:    115  87  89
1720435123,749:    116  87  89
1720435123,749:    118  87  89
1720435123,749:    119  87  89
1720435123,749:    116  87  89
1720435123,749:    109  87  89
1720435123,749:    104  87  89
1720435123,749:    103  87  89
1720435123,749:    103  87  89
1720435123,749:     98  87  89
1720435123,749:     87  87  89
1720435123,749:     76  87  89
1720435123,749:     72  87  89
1720435123,749:     75  87  89
1720435123,781:     81  87  89
1720435123,781:     84  87  89
1720435123,781:     83  87  89
1720435123,781:     81  87  89
1720435123,781:     82  87  89
1720435123,781:     87  87  89
1720435123,781:     93  87  89
1720435123,781:     97  87  89
1720435123,781:     95  87  89
1720435123,781:     87  87  89
1720435123,781:     75  87  89
1720435123,781:     67  87  89
1720435123,781:     67  87  89
1720435123,781:     72  87  89
1720435123,781:     75  87  89
1720435123,813:     69  87  89
1720435123,813:     59  87  89
1720435123,813:     54  87  89
1720435123,813:     58  87  89
1720435123,813:     67  87  89
1720435123,813:     73  87  89
1720435123,813:     73  87  89
1720435123,813:     70  87  89
1720435123,813:     65  87  89
1720435123,813:     61  87  89
1720435123,813:     60  87  89
1720435123,813:     64  87  89
1720435123,813:     72  87  89
1720435123,813:     77  87  89
1720435123,813:     74  87  89
1720435123,813:     66  87  89
1720435123,813:     61  87  89
1720435123,813:     65  87  89
1720435123,813:     76  87  89
1720435123,813:     84  87  89
1720435123,813:     84  87  89
1720435123,813:     80  87  89
1720435123,845:     78  87  89
1720435123,845:     79  87  89
1720435123,845:     81  87  89
1720435123,845:     79  87  89
1720435123,845:     73  87  89
1720435123,845:     67  87  89
1720435123,845:     63  87  89
1720435123,845:     63  87  89
1720435123,877:     65  87  89
1720435123,877:     62  87  89
1720435123,877:     54  87  89
1720435123,877:     49  87  89
1720435123,877:     54  87  89
1720435123,877:     66  87  89
1720435123,877:     74  87  89
1720435123,877:     69  87  89
1720435123,877:     58  87  89
1720435123,877:     53  87  89
1720435123,877:     59  87  89
1720435123,877:     66  87  89
1720435123,877:     65  87  89
1720435123,877:     56  87  89
1720435123,877:     50  87  89
1720435123,909:     49  87  89
1720435123,909:     49  87  89
1720435123,909:     44  87  89
1720435123,909:     38  87  89
1720435123,909:     38  87  89
1720435123,909:     42  87  89
1720435123,909:     41  87  89
1720435123,909:     30  87  89
1720435123,909:     17  87  89
1720435123,909:     13  87  89
1720435123,909:     20  87  89
1720435123,909:     28  87  89
1720435123,909:     29  87  89
1720435123,909:     25  87  89
1720435123,909:     24  87  89
1720435123,909:     27  87  89
1720435123,909:     29  87  89
1720435123,909:     28  87  89
1720435123,909:     25  87  89
1720435123,909:     24  87  89
1720435123,909:     24  87  89
1720435123,909:     19  87  89
1720435123,941:      9  87  89
1720435123,941:      1  87  89
1720435123,941:      2  87  89
1720435123,941:      9  87  89
1720435123,941:     13  87  89
1720435123,941:      7  87  89
1720435123,941:     -4  87  89
1720435123,941:    -13  87  89
1720435123,941:    -15  87  89
1720435123,941:    -13  87  89
1720435123,941:    -14  87  89
1720435123,941:    -20  87  89
1720435123,941:    -30  87  89
1720435123,941:    -42  87  89
1720435123,941:    -53  87  89
1720435123,973:    -60  87  89
1720435123,973:    -60  87  89
1720435123,973:    -52  87  89
1720435123,973:    -38  87  89
1720435123,973:    -20  87  89
1720435123,973:      1  87  89
1720435123,973:     22  87  89
1720435123,973:     41  87  89
1720435123,973:     55  87  89
1720435123,973:     63  87  89
1720435123,973:     67  87  89
1720435123,973:     69  87  89
1720435123,973:     66  87  89
1720435123,973:     52  87  89
1720435123,973:     29  87  89
1720435124,005:      7  87  89
1720435124,005:      1  87  89
1720435124,005:     14  87  89
1720435124,005:     37  87  89
1720435124,005:     55  87  89
1720435124,005:     64  87  89
1720435124,005:     68  87  89
1720435124,005:     76  87  89
1720435124,005:     85  87  89
1720435124,005:     86  87  89
1720435124,005:     74  87  89
1720435124,005:     54  87  89
1720435124,005:     38  87  89
1720435124,005:     27  87  89
1720435124,005:     18  87  89
1720435124,036:      6  87  89
1720435124,036:     -2  87  89
1720435124,036:      3  87  89
1720435124,036:     21  87  89
1720435124,036:     35  87  89
1720435124,036:     32  87  89
1720435124,036:     12  87  89
1720435124,036:     -9  87  89
1720435124,036:    -21  87  89
1720435124,036:    -25  87  89
1720435124,036:    -30  87  89
1720435124,036:    -38  87  89
1720435124,036:    -42  87  89
1720435124,036:    -39  87  89
1720435124,036:    -25  87  89
1720435124,036:     -5  87  89
1720435124,036:     20  87  89
1720435124,036:     43  87  89
1720435124,036:     45  87  89
1720435124,036:      6  87  89
1720435124,036:    -86  87  89
1720435124,036:   -219  87  89
1720435124,036:   -391  87  89
1720435124,068:   -609  87  89
1720435124,068:   -868  87  89
1720435124,068:  -1128  87  89
1720435124,068:  -1318  87  89
1720435124,068:  -1377  87  89
1720435124,068:  -1279  87  89
1720435124,068:  -1013  87  89
1720435124,100:   -540  87  89
1720435124,100:    197  87  89
1720435124,100:   1206  87  89
1720435124,100:   2398  87  89
1720435124,100:   3614  87  89
1720435124,100:   4711  87  89
1720435124,100:   5608  87  89
1720435124,100:   6263  87  89
1720435124,100:   6634  87  89
1720435124,100:   6676  87  89
1720435124,100:   6390  87  89
1720435124,100:   5838  87  89
1720435124,100:   5117  87  89
1720435124,100:   4316  87  89
1720435124,100:   3508  87  89
1720435124,100:   2760  87  89
1720435124,100:   2127  87  89
1720435124,100:   1626  87  89
1720435124,100:   1231  87  89
1720435124,100:    890  87  89
1720435124,100:    573  87  89
1720435124,100:    270  87  89
1720435124,100:    -21  87  89
1720435124,132:   -306  84  87
1720435124,132:   -589  84  87
1720435124,132:   -860  84  87
1720435124,132:  -1096  84  87
1720435124,132:  -1280  84  87
1720435124,132:  -1409  84  87
1720435124,132:  -1480  84  87
1720435124,132:  -1494  84  87
1720435124,132:  -1465  84  87
1720435124,132:  -1420  84  87
1720435124,132:  -1390  84  87
1720435124,132:  -1389  84  87
1720435124,132:  -1413  84  87
1720435124,132:  -1444  84  87
1720435124,132:  -1472  84  87
1720435124,163:  -1491  84  87
1720435124,163:  -1496  84  87
1720435124,163:  -1479  84  87
1720435124,163:  -1434  84  87
1720435124,163:  -1375  84  87
1720435124,163:  -1321  84  87
1720435124,163:  -1286  84  87
1720435124,163:  -1271  84  87
1720435124,163:  -1267  84  87
1720435124,163:  -1266  84  87
1720435124,163:  -1263  84  87
1720435124,163:  -1254  84  87
1720435124,163:  -1233  84  87
1720435124,163:  -1200  84  87
1720435124,163:  -1161  84  87
1720435124,195:  -1127  84  87
1720435124,195:  -1108  84  87
1720435124,195:  -1097  84  87
1720435124,195:  -1086  84  87
1720435124,195:  -1068  84  87
1720435124,195:  -1047  84  87
1720435124,195:  -1032  84  87
1720435124,195:  -1020  84  87
1720435124,195:  -1006  84  87
1720435124,195:   -986  84  87
1720435124,195:   -965  84  87
1720435124,195:   -954  84  87
1720435124,195:   -952  84  87
1720435124,195:   -948  84  87
1720435124,195:   -937  84  87
1720435124,227:   -922  84  87
1720435124,227:   -916  84  87
1720435124,227:   -920  84  87
1720435124,227:   -925  84  87
1720435124,227:   -924  84  87
1720435124,227:   -914  84  87
1720435124,227:   -904  84  87
1720435124,227:   -902  84  87
1720435124,227:   -907  84  87
1720435124,227:   -915  84  87
1720435124,227:   -921  84  87
1720435124,227:   -920  84  87
1720435124,227:   -914  84  87
1720435124,227:   -907  84  87
1720435124,227:   -906  84  87
1720435124,259:   -915  84  87
1720435124,259:   -932  84  87
1720435124,259:   -947  84  87
1720435124,259:   -958  84  87
1720435124,259:   -964  84  87
1720435124,259:   -969  84  87
1720435124,259:   -974  84  87
1720435124,259:   -982  84  87
1720435124,259:   -989  84  87
1720435124,259:   -994  84  87
1720435124,259:   -991  84  87
1720435124,259:   -980  84  87
1720435124,259:   -960  84  87
1720435124,259:   -939  84  87
1720435124,259:   -923  84  87
1720435124,291:   -912  84  87
1720435124,291:   -899  84  87
1720435124,291:   -878  84  87
1720435124,291:   -847  84  87
1720435124,291:   -816  84  87
1720435124,291:   -792  84  87
1720435124,291:   -776  84  87
1720435124,291:   -757  84  87
1720435124,291:   -725  84  87
1720435124,291:   -683  84  87
1720435124,291:   -640  84  87
1720435124,291:   -604  84  87
1720435124,291:   -575  84  87
1720435124,291:   -542  84  87
1720435124,291:   -500  84  87
1720435124,322:   -451  84  87
1720435124,322:   -399  84  87
1720435124,322:   -351  84  87
1720435124,322:   -307  84  87
1720435124,322:   -266  84  87
1720435124,322:   -225  84  87
1720435124,322:   -175  84  87
1720435124,322:   -118  84  87
1720435124,322:    -58  84  87
1720435124,322:     -7  84  87
1720435124,322:     30  84  87
1720435124,322:     62  84  87
1720435124,322:     97  84  87
1720435124,322:    138  84  87
1720435124,322:    177  84  87
1720435124,322:    212  84  87
1720435124,322:    241  84  87
1720435124,322:    265  84  87
1720435124,322:    285  84  87
1720435124,322:    301  84  87
1720435124,322:    317  84  87
1720435124,322:    340  84  87
1720435124,354:    369  84  87
1720435124,354:    393  84  87
1720435124,354:    402  84  87
1720435124,354:    402  84  87
1720435124,354:    400  84  87
1720435124,354:    406  84  87
1720435124,354:    417  84  87
1720435124,354:    423  84  87
1720435124,354:    418  84  87
1720435124,354:    406  84  87
1720435124,354:    394  84  87
1720435124,354:    385  84  87
1720435124,354:    380  84  87
1720435124,354:    376  84  87
1720435124,354:    369  84  87
1720435124,386:    362  84  87
1720435124,386:    355  84  87
1720435124,386:    349  84  87
1720435124,386:    343  84  87
1720435124,386:    335  84  87
1720435124,386:    326  84  87
1720435124,386:    319  84  87
1720435124,386:    315  84  87
1720435124,386:    310  84  87
1720435124,386:    304  84  87
1720435124,386:    294  84  87
1720435124,386:    282  84  87
1720435124,386:    272  84  87
1720435124,386:    266  84  87
1720435124,386:    260  84  87
1720435124,417:    253  84  87
1720435124,417:    242  84  87
1720435124,417:    232  84  87
1720435124,417:    226  84  87
1720435124,417:    223  84  87
1720435124,417:    217  84  87
1720435124,417:    205  84  87
1720435124,417:    194  84  87
1720435124,417:    189  84  87
1720435124,417:    189  84  87
1720435124,417:    185  84  87
1720435124,417:    174  84  87
1720435124,417:    161  84  87
1720435124,417:    152  84  87
1720435124,417:    149  84  87
1720435124,448:    146  84  87
1720435124,448:    138  84  87
1720435124,448:    127  84  87
1720435124,448:    119  84  87
1720435124,448:    113  84  87
1720435124,448:    106  84  87
1720435124,448:     94  84  87
1720435124,448:     83  84  87
1720435124,448:     78  84  87
1720435124,448:     78  84  87
1720435124,448:     78  84  87
1720435124,448:     74  84  87
1720435124,448:     68  84  87
1720435124,448:     66  84  87
1720435124,448:     65  84  87
1720435124,480:     61  84  87
1720435124,480:     56  84  87
1720435124,480:     51  84  87
1720435124,480:     47  84  87
1720435124,480:     43  84  87
1720435124,480:     35  84  87
1720435124,480:     27  84  87
1720435124,480:     22  84  87
1720435124,480:     21  84  87
1720435124,480:     18  84  87
1720435124,480:     14  84  87
1720435124,480:     11  84  87
1720435124,480:     11  84  87
1720435124,480:     12  84  87
1720435124,480:     11  84  87
1720435124,480:      8  84  87
1720435124,480:     11  84  87
1720435124,480:     20  84  87
1720435124,480:     28  84  87
1720435124,480:     29  84  87
1720435124,480:     22  84  87
1720435124,480:     19  84  87
1720435124,480:     29  84  87
1720435124,512:     45  84  87
1720435124,512:     52  84  87
1720435124,512:     43  84  87
1720435124,512:     28  84  87
1720435124,512:     21  84  87
1720435124,512:     29  84  87
1720435124,512:     39  84  87
1720435124,544:     39  84  87
1720435124,544:     27  84  87
1720435124,544:     16  84  87
1720435124,544:     19  84  87
1720435124,544:     33  84  87
1720435124,544:     45  84  87
1720435124,544:     43  84  87
1720435124,544:     33  84  87
1720435124,544:     24  84  87
1720435124,544:     22  84  87
1720435124,544:     22  84  87
1720435124,544:     18  84  87
1720435124,544:     10  84  87
1720435124,544:      4  84  87
1720435124,544:      0  84  87
1720435124,544:     -6  84  87
1720435124,544:    -16  84  87
1720435124,544:    -26  84  87
1720435124,544:    -26  84  87
1720435124,544:    -16  84  87
1720435124,575:     -6  84  87
1720435124,575:     -5  84  87
1720435124,575:    -12  84  87
1720435124,575:    -17  84  87
1720435124,575:    -17  84  87
1720435124,575:    -13  84  87
1720435124,575:    -13  84  87
1720435124,575:    -19  84  87
1720435124,575:    -26  84  87
1720435124,575:    -29  84  87
1720435124,575:    -27  84  87
1720435124,575:    -21  84  87
1720435124,575:    -17  84  87
1720435124,575:    -15  84  87
1720435124,575:    -13  84  87
1720435124,607:    -11  84  87
1720435124,607:     -8  84  87
1720435124,607:     -4  84  87
1720435124,607:     -1  84  87
1720435124,607:     -1  84  87
1720435124,607:     -2  84  87
1720435124,607:     -5  84  87
1720435124,607:     -8  84  87
1720435124,607:     -9  84  87
1720435124,607:    -10  84  87
1720435124,607:    -12  84  87
1720435124,607:    -14  84  87
1720435124,607:    -16  84  87
1720435124,607:    -16  84  87
1720435124,607:    -15  84  87
1720435124,637:    -18  84  87
1720435124,637:    -25  84  87
1720435124,637:    -33  84  87
1720435124,637:    -38  84  87
1720435124,637:    -39  84  87
1720435124,637:    -37  84  87
1720435124,637:    -37  84  87
1720435124,637:    -39  84  87
1720435124,637:    -40  84  87
1720435124,637:    -39  84  87
1720435124,637:    -34  84  87
1720435124,637:    -30  84  87
1720435124,637:    -30  84  87
1720435124,637:    -35  84  87
1720435124,637:    -44  84  87
1720435124,637:    -50  84  87
1720435124,637:    -49  84  87
1720435124,637:    -43  84  87
1720435124,637:    -38  84  87
1720435124,637:    -41  84  87
1720435124,637:    -50  84  87
1720435124,637:    -58  84  87
1720435124,637:    -60  84  87
1720435124,668:    -58  84  87
1720435124,668:    -58  84  87
1720435124,668:    -64  84  87
1720435124,668:    -72  84  87
1720435124,668:    -80  84  87
1720435124,668:    -86  84  87
1720435124,668:    -91  84  87
1720435124,668:    -94  84  87
1720435124,668:    -94  84  87
1720435124,668:    -91  84  87
1720435124,668:    -90  84  87
1720435124,668:    -92  84  87
1720435124,668:    -95  84  87
1720435124,668:    -95  84  87
1720435124,668:    -95  84  87
1720435124,700:   -100  84  87
1720435124,700:   -109  84  87
1720435124,700:   -111  84  87
1720435124,700:    -96  84  87
1720435124,700:    -71  84  87
1720435124,700:    -51  84  87
1720435124,700:    -44  84  87
1720435124,700:    -40  84  87
1720435124,700:    -29  84  87
1720435124,700:    -10  84  87
1720435124,700:      3  84  87
1720435124,700:     -1  84  87
1720435124,700:    -16  84  87
1720435124,700:    -30  84  87
1720435124,700:    -31  84  87
1720435124,732:    -19  84  87
1720435124,732:      0  84  87
1720435124,732:     17  84  87
1720435124,732:     27  84  87
1720435124,732:     28  84  87
1720435124,732:     25  84  87
1720435124,732:     24  84  87
1720435124,732:     24  84  87
1720435124,732:     18  84  87
1720435124,732:      1  84  87
1720435124,732:    -23  84  87
1720435124,732:    -42  84  87
1720435124,732:    -50  84  87
1720435124,732:    -52  84  87
1720435124,732:    -52  84  87
1720435124,763:    -51  84  87
1720435124,763:    -43  84  87
1720435124,763:    -30  84  87
1720435124,763:    -22  84  87
1720435124,763:    -22  84  87
1720435124,763:    -29  84  87
1720435124,763:    -38  84  87
1720435124,763:    -46  84  87
1720435124,763:    -56  84  87
1720435124,763:    -67  84  87
1720435124,763:    -75  84  87
1720435124,763:    -75  84  87
1720435124,763:    -62  84  87
1720435124,763:    -39  84  87
1720435124,763:    -12  84  87
1720435124,795:     13  84  87
1720435124,795:     25  84  87
1720435124,795:     10  84  87
1720435124,795:    -43  84  87
1720435124,795:   -137  84  87
1720435124,795:   -278  84  87
1720435124,795:   -477  84  87
1720435124,795:   -728  84  87
1720435124,795:  -1001  84  87
1720435124,795:  -1235  84  87
1720435124,795:  -1372  84  87
1720435124,795:  -1378  84  87
1720435124,795:  -1234  84  87
1720435124,795:   -900  84  87
1720435124,795:   -317  84  87
1720435124,826:    549  84  87
1720435124,826:   1651  84  87
1720435124,826:   2858  84  87
1720435124,826:   4023  84  87
1720435124,826:   5039  84  87
1720435124,826:   5843  84  87
1720435124,826:   6385  84  87
1720435124,858:   6613  83  86
1720435124,858:   6503  83  86
1720435124,858:   6089  83  86
1720435124,858:   5457  83  86
1720435124,858:   4701  83  86
1720435124,858:   3903  83  86
1720435124,858:   3126  83  86
1720435124,858:   2429  83  86
1720435124,858:   1852  83  86
1720435124,858:   1399  83  86
1720435124,858:   1037  83  86
1720435124,858:    722  83  86
1720435124,858:    419  83  86
1720435124,858:    119  83  86
1720435124,858:   -173  83  86
1720435124,858:   -450  83  86
1720435124,858:   -712  83  86
1720435124,858:   -958  83  86
1720435124,858:  -1175  83  86
1720435124,858:  -1343  83  86
1720435124,858:  -1444  83  86
1720435124,858:  -1479  83  86
1720435124,858:  -1468  83  86
1720435124,889:  -1442  83  86
1720435124,889:  -1417  83  86
1720435124,889:  -1399  83  86
1720435124,889:  -1395  83  86
1720435124,889:  -1410  83  86
1720435124,889:  -1442  83  86
1720435124,889:  -1473  83  86
1720435124,889:  -1481  83  86
1720435124,889:  -1460  83  86
1720435124,889:  -1419  83  86
1720435124,889:  -1372  83  86
1720435124,889:  -1330  83  86
1720435124,889:  -1295  83  86
1720435124,889:  -1269  83  86
1720435124,889:  -1254  83  86
1720435124,889:  -1249  83  86
1720435124,889:  -1247  83  86
1720435124,889:  -1239  83  86
1720435124,889:  -1218  83  86
1720435124,889:  -1184  83  86
1720435124,889:  -1141  83  86
1720435124,889:  -1098  83  86
1720435124,920:  -1063  83  86
1720435124,920:  -1040  83  86
1720435124,920:  -1028  83  86
1720435124,920:  -1022  83  86
1720435124,920:  -1015  83  86
1720435124,920:  -1003  83  86
1720435124,920:   -982  83  86
1720435124,920:   -957  83  86
1720435124,920:   -932  83  86
1720435124,920:   -914  83  86
1720435124,920:   -904  83  86
1720435124,920:   -897  83  86
1720435124,920:   -887  83  86
1720435124,920:   -874  83  86
1720435124,920:   -864  83  86
1720435124,952:   -860  83  86
1720435124,952:   -861  83  86
1720435124,952:   -859  83  86
1720435124,952:   -852  83  86
1720435124,952:   -844  83  86
1720435124,952:   -842  83  86
1720435124,952:   -847  83  86
1720435124,952:   -852  83  86
1720435124,952:   -852  83  86
1720435124,952:   -847  83  86
1720435124,952:   -841  83  86
1720435124,952:   -841  83  86
1720435124,952:   -846  83  86
1720435124,952:   -849  83  86
1720435124,952:   -848  83  86
1720435124,984:   -844  83  86
1720435124,984:   -844  83  86
1720435124,984:   -852  83  86
1720435124,984:   -866  83  86
1720435124,984:   -883  83  86
1720435124,984:   -896  83  86
1720435124,984:   -905  83  86
1720435124,984:   -911  83  86
1720435124,984:   -916  83  86
1720435124,984:   -917  83  86
1720435124,984:   -911  83  86
1720435124,984:   -899  83  86
1720435124,984:   -883  83  86
1720435124,984:   -869  83  86
1720435124,984:   -855  83  86
1720435125,016:   -838  83  86
1720435125,016:   -815  83  86
1720435125,016:   -792  83  86
1720435125,016:   -772  83  86
1720435125,016:   -758  83  86
1720435125,016:   -742  83  86
1720435125,016:   -719  83  86
1720435125,016:   -688  83  86
1720435125,016:   -653  83  86
1720435125,016:   -619  83  86
1720435125,016:   -587  83  86
1720435125,016:   -555  83  86
1720435125,016:   -519  83  86
1720435125,016:   -476  83  86
1720435125,016:   -427  83  86
1720435125,048:   -379  83  86
1720435125,048:   -340  83  86
1720435125,048:   -311  83  86
1720435125,048:   -280  83  86
1720435125,048:   -238  83  86
1720435125,048:   -183  83  86
1720435125,048:   -127  83  86
1720435125,048:    -80  83  86
1720435125,048:    -40  83  86
1720435125,048:      1  83  86
1720435125,048:     50  83  86
1720435125,048:    100  83  86
1720435125,048:    145  83  86
1720435125,048:    179  83  86
1720435125,048:    207  83  86
1720435125,080:    236  83  86
1720435125,080:    265  83  86
1720435125,080:    290  83  86
1720435125,080:    309  83  86
1720435125,080:    321  83  86
1720435125,080:    333  83  86
1720435125,080:    347  83  86
1720435125,080:    363  83  86
1720435125,080:    376  83  86
1720435125,080:    382  83  86
1720435125,080:    384  83  86
1720435125,080:    389  83  86
1720435125,080:    400  83  86
1720435125,080:    411  83  86
1720435125,080:    416  83  86
1720435125,112:    411  83  86
1720435125,112:    398  83  86
1720435125,112:    386  83  86
1720435125,112:    378  83  86
1720435125,112:    373  83  86
1720435125,112:    369  83  86
1720435125,112:    364  83  86
1720435125,112:    355  83  86
1720435125,112:    342  83  86
1720435125,112:    330  83  86
1720435125,112:    322  83  86
1720435125,112:    318  83  86
1720435125,112:    314  83  86
1720435125,112:    305  83  86
1720435125,112:    292  83  86
1720435125,112:    279  83  86
1720435125,112:    270  83  86
1720435125,112:    266  83  86
1720435125,112:    265  83  86
1720435125,112:    265  83  86
1720435125,112:    263  83  86
1720435125,112:    257  83  86
1720435125,112:    247  83  86
1720435125,143:    237  83  86
1720435125,143:    235  83  86
1720435125,143:    237  83  86
1720435125,143:    235  83  86
1720435125,143:    221  83  86
1720435125,143:    204  83  86
1720435125,143:    195  83  86
1720435125,143:    199  83  86
1720435125,143:    207  83  86
1720435125,143:    207  83  86
1720435125,143:    198  83  86
1720435125,143:    190  83  86
1720435125,143:    189  83  86
1720435125,143:    191  83  86
1720435125,143:    185  83  86
1720435125,175:    170  83  86
1720435125,175:    154  83  86
1720435125,175:    144  83  86
1720435125,175:    141  83  86
1720435125,175:    139  83  86
1720435125,175:    134  83  86
1720435125,175:    127  83  86
1720435125,175:    122  83  86
1720435125,175:    120  83  86
1720435125,175:    119  83  86
1720435125,175:    115  83  86
1720435125,175:    108  83  86
1720435125,175:    100  83  86
1720435125,175:     93  83  86
1720435125,175:     87  83  86
1720435125,207:     81  83  86
1720435125,207:     73  83  86
1720435125,207:     63  83  86
1720435125,207:     55  83  86
1720435125,207:     50  83  86
1720435125,207:     50  83  86
1720435125,207:     51  83  86
1720435125,207:     51  83  86
1720435125,207:     47  83  86
1720435125,207:     42  83  86
1720435125,207:     40  83  86
1720435125,207:     43  83  86
1720435125,207:     48  83  86
1720435125,207:     50  83  86
1720435125,207:     47  83  86
1720435125,207:     41  83  86
1720435125,207:     39  83  86
1720435125,207:     42  83  86
1720435125,207:     45  83  86
1720435125,207:     43  83  86
1720435125,207:     36  83  86
1720435125,207:     29  83  86
1720435125,238:     27  83  86
1720435125,238:     26  83  86
1720435125,238:     23  83  86
1720435125,238:     19  83  86
1720435125,238:     16  83  86
1720435125,238:     18  83  86
1720435125,238:     25  83  86
1720435125,238:     31  83  86
1720435125,270:     35  83  86
1720435125,270:     38  83  86
1720435125,270:     44  83  86
1720435125,270:     54  83  86
1720435125,270:     65  83  86
1720435125,270:     71  83  86
1720435125,270:     70  83  86
1720435125,270:     66  83  86
1720435125,270:     62  83  86
1720435125,270:     63  83  86
1720435125,270:     65  83  86
1720435125,270:     63  83  86
1720435125,270:     56  83  86
1720435125,270:     49  83  86
1720435125,270:     48  83  86
1720435125,302:     51  83  86
1720435125,302:     50  83  86
1720435125,302:     43  83  86
1720435125,302:     36  83  86
1720435125,302:     36  83  86
1720435125,302:     46  83  86
1720435125,302:     56  83  86
1720435125,302:     59  83  86
1720435125,302:     56  83  86
1720435125,302:     54  83  86
1720435125,302:     56  83  86
1720435125,302:     59  83  86
1720435125,302:     58  83  86
1720435125,302:     53  83  86
1720435125,302:     46  83  86
1720435125,334:     40  83  86
1720435125,334:     35  83  86
1720435125,334:     30  83  86
1720435125,334:     30  83  86
1720435125,334:     36  83  86
1720435125,334:     45  83  86
1720435125,334:     51  83  86
1720435125,334:     52  83  86
1720435125,334:     52  83  86
1720435125,334:     54  83  86
1720435125,334:     59  83  86
1720435125,334:     62  83  86
1720435125,334:     60  83  86
1720435125,334:     52  83  86
1720435125,334:     46  83  86
1720435125,334:     46  83  86
1720435125,334:     49  83  86
1720435125,334:     51  83  86
1720435125,334:     50  83  86
1720435125,334:     48  83  86
1720435125,334:     47  83  86
1720435125,334:     47  83  86
1720435125,366:     45  83  86
1720435125,366:     41  83  86
1720435125,366:     38  83  86
1720435125,366:     38  83  86
1720435125,366:     40  83  86
1720435125,366:     41  83  86
1720435125,366:     39  83  86
1720435125,366:     37  83  86
1720435125,366:     39  83  86
1720435125,366:     45  83  86
1720435125,366:     49  83  86
1720435125,366:     46  83  86
1720435125,366:     37  83  86
1720435125,366:     27  83  86
1720435125,366:     22  83  86
1720435125,398:     20  83  86
1720435125,398:     19  83  86
1720435125,398:     18  83  86
1720435125,398:     17  83  86
1720435125,398:     16  83  86
1720435125,398:     15  83  86
1720435125,398:     13  83  86
1720435125,398:     11  83  86
1720435125,398:      8  83  86
1720435125,398:      2  83  86
1720435125,398:     -6  83  86
1720435125,398:    -14  83  86
1720435125,398:    -20  83  86
1720435125,398:    -27  83  86
1720435125,398:    -37  83  86
1720435125,429:    -44  83  86
1720435125,429:    -43  83  86
1720435125,429:    -35  83  86
1720435125,429:    -28  83  86
1720435125,429:    -31  83  86
1720435125,429:    -42  83  86
1720435125,429:    -52  83  86
1720435125,429:    -55  83  86
1720435125,429:    -55  83  86
1720435125,429:    -58  83  86
1720435125,429:    -60  83  86
1720435125,429:    -53  83  86
1720435125,429:    -37  83  86
1720435125,429:    -20  83  86
1720435125,429:    -12  83  86
1720435125,461:    -11  83  86
1720435125,461:     -5  83  86
1720435125,461:     11  83  86
1720435125,461:     29  83  86
1720435125,461:     35  83  86
1720435125,461:     25  83  86
1720435125,461:      9  83  86
1720435125,461:      2  83  86
1720435125,461:      9  83  86
1720435125,461:     25  83  86
1720435125,461:     38  83  86
1720435125,461:     40  83  86
1720435125,461:     34  83  86
1720435125,461:     25  83  86
1720435125,461:     19  83  86
1720435125,492:     12  83  86
1720435125,492:      4  83  86
1720435125,492:     -7  83  86
1720435125,492:    -17  83  86
1720435125,492:    -27  83  86
1720435125,492:    -37  83  86
1720435125,492:    -44  83  86
1720435125,492:    -42  83  86
1720435125,492:    -27  83  86
1720435125,492:     -5  83  86
1720435125,492:     12  83  86
1720435125,492:     17  83  86
1720435125,492:     12  83  86
1720435125,492:      4  83  86
1720435125,492:     -4  83  86
1720435125,524:    -12  83  86
1720435125,524:    -23  83  86
1720435125,524:    -31  83  86
1720435125,524:    -32  83  86
1720435125,524:    -27  83  86
1720435125,524:    -17  83  86
1720435125,524:     -1  83  86
1720435125,524:     19  83  86
1720435125,524:     36  83  86
1720435125,524:     35  83  86
1720435125,524:      0  83  86
1720435125,524:    -80  83  86
1720435125,524:   -202  83  86
1720435125,524:   -368  83  86
1720435125,524:   -582  83  86
1720435125,555:   -836  83  86
1720435125,555:  -1091  83  86
1720435125,555:  -1282  83  86
1720435125,555:  -1359  83  86
1720435125,555:  -1297  83  86
1720435125,555:  -1078  83  86
1720435125,555:   -658  83  86
1720435125,555:     18  83  86
1720435125,555:    962  83  86
1720435125,555:   2094  83  86
1720435125,555:   3269  83  86
1720435125,555:   4353  83  86
1720435125,555:   5260  83  86
1720435125,555:   5937  83  86
1720435125,555:   6323  83  86
1720435125,555:   6370  83  86
1720435125,555:   6090  83  86
1720435125,555:   5565  83  86
1720435125,555:   4898  83  86
1720435125,555:   4161  83  86
1720435125,587:   3393  82  84
1720435125,587:   2651  82  84
1720435125,587:   2017  82  84
1720435125,587:   1548  82  84
1720435125,587:   1227  82  84
1720435125,587:    967  82  84
1720435125,587:    696  82  84
1720435125,587:    396  82  84
1720435125,587:     98  82  84
1720435125,587:   -176  82  84
1720435125,587:   -438  82  84
1720435125,587:   -707  82  84
1720435125,587:   -973  82  84
1720435125,587:  -1197  82  84
1720435125,587:  -1349  82  84
1720435125,619:  -1426  82  84
1720435125,619:  -1447  82  84
1720435125,619:  -1434  82  84
1720435125,619:  -1401  82  84
1720435125,619:  -1361  82  84
1720435125,619:  -1333  82  84
1720435125,619:  -1334  82  84
1720435125,619:  -1362  82  84
1720435125,619:  -1399  82  84
1720435125,619:  -1423  82  84
1720435125,619:  -1426  82  84
1720435125,619:  -1405  82  84
1720435125,619:  -1364  82  84
1720435125,619:  -1307  82  84
1720435125,619:  -1250  82  84
1720435125,651:  -1211  82  84
1720435125,651:  -1197  82  84
1720435125,651:  -1198  82  84
1720435125,651:  -1200  82  84
1720435125,651:  -1192  82  84
1720435125,651:  -1175  82  84
1720435125,651:  -1151  82  84
1720435125,651:  -1120  82  84
1720435125,651:  -1082  82  84
1720435125,651:  -1041  82  84
1720435125,651:  -1009  82  84
1720435125,651:   -991  82  84
1720435125,651:   -984  82  84
1720435125,651:   -976  82  84
1720435125,651:   -961  82  84
1720435125,651:   -942  82  84
1720435125,651:   -925  82  84
1720435125,651:   -911  82  84
1720435125,651:   -897  82  84
1720435125,651:   -879  82  84
1720435125,651:   -864  82  84
1720435125,651:   -855  82  84
1720435125,682:   -851  82  84
1720435125,682:   -844  82  84
1720435125,682:   -832  82  84
1720435125,682:   -820  82  84
1720435125,682:   -814  82  84
1720435125,682:   -812  82  84
1720435125,682:   -809  82  84
1720435125,682:   -802  82  84
1720435125,682:   -797  82  84
1720435125,682:   -802  82  84
1720435125,682:   -814  82  84
1720435125,682:   -824  82  84
1720435125,682:   -828  82  84
1720435125,682:   -829  82  84
1720435125,682:   -834  82  84
1720435125,714:   -842  82  84
1720435125,714:   -849  82  84
1720435125,714:   -853  82  84
1720435125,714:   -855  82  84
1720435125,714:   -858  82  84
1720435125,714:   -863  82  84
1720435125,714:   -866  82  84
1720435125,714:   -868  82  84
1720435125,714:   -872  82  84
1720435125,714:   -878  82  84
1720435125,714:   -884  82  84
1720435125,714:   -888  82  84
1720435125,714:   -885  82  84
1720435125,714:   -875  82  84
1720435125,714:   -861  82  84
1720435125,746:   -847  82  84
1720435125,746:   -838  82  84
1720435125,746:   -829  82  84
1720435125,746:   -813  82  84
1720435125,746:   -785  82  84
1720435125,746:   -752  82  84
1720435125,746:   -725  82  84
1720435125,746:   -706  82  84
1720435125,746:   -690  82  84
1720435125,746:   -666  82  84
1720435125,746:   -633  82  84
1720435125,746:   -598  82  84
1720435125,746:   -566  82  84
1720435125,746:   -535  82  84
1720435125,746:   -501  82  84
1720435125,778:   -463  82  84
1720435125,778:   -424  82  84
1720435125,778:   -388  82  84
1720435125,778:   -353  82  84
1720435125,778:   -317  82  84
1720435125,778:   -279  82  84
1720435125,778:   -240  82  84
1720435125,778:   -198  82  84
1720435125,778:   -152  82  84
1720435125,778:   -103  82  84
1720435125,778:    -54  82  84
1720435125,778:     -8  82  84
1720435125,778:     36  82  84
1720435125,778:     83  82  84
1720435125,778:    132  82  84
1720435125,809:    174  82  84
1720435125,809:    207  82  84
1720435125,809:    231  82  84
1720435125,809:    255  82  84
1720435125,809:    278  82  84
1720435125,809:    297  82  84
1720435125,809:    310  82  84
1720435125,809:    322  82  84
1720435125,809:    340  82  84
1720435125,809:    360  82  84
1720435125,809:    376  82  84
1720435125,809:    384  82  84
1720435125,809:    389  82  84
1720435125,809:    398  82  84
1720435125,809:    411  82  84
1720435125,841:    422  82  84
1720435125,841:    423  82  84
1720435125,841:    413  82  84
1720435125,841:    398  82  84
1720435125,841:    388  82  84
1720435125,841:    389  82  84
1720435125,841:    397  82  84
1720435125,841:    400  82  84
1720435125,841:    390  82  84
1720435125,841:    370  82  84
1720435125,841:    353  82  84
1720435125,841:    350  82  84
1720435125,841:    361  82  84
1720435125,841:    369  82  84
1720435125,841:    363  82  84
1720435125,841:    343  82  84
1720435125,841:    324  82  84
1720435125,841:    317  82  84
1720435125,841:    320  82  84
1720435125,841:    320  82  84
1720435125,841:    309  82  84
1720435125,841:    292  82  84
1720435125,841:    277  82  84
1720435125,872:    271  82  84
1720435125,872:    266  82  84
1720435125,872:    255  82  84
1720435125,872:    239  82  84
1720435125,872:    224  82  84
1720435125,872:    218  82  84
1720435125,872:    217  82  84
1720435125,872:    214  82  84
1720435125,872:    205  82  84
1720435125,872:    194  82  84
1720435125,872:    189  82  84
1720435125,872:    190  82  84
1720435125,872:    193  82  84
1720435125,872:    192  82  84
1720435125,872:    189  82  84
1720435125,904:    183  82  84
1720435125,904:    177  82  84
1720435125,904:    166  82  84
1720435125,904:    154  82  84
1720435125,904:    145  82  84
1720435125,904:    144  82  84
1720435125,904:    147  82  84
1720435125,904:    144  82  84
1720435125,904:    134  82  84
1720435125,904:    121  82  84
1720435125,904:    114  82  84
1720435125,904:    119  82  84
1720435125,904:    129  82  84
1720435125,904:    133  82  84
1720435125,904:    127  82  84
1720435125,936:    114  82  84
1720435125,936:    104  82  84
1720435125,936:    101  82  84
1720435125,936:    102  82  84
1720435125,936:    102  82  84
1720435125,936:     99  82  84
1720435125,936:     97  82  84
1720435125,936:     99  82  84
1720435125,936:    100  82  84
1720435125,936:     96  82  84
1720435125,936:     90  82  84
1720435125,936:     87  82  84
1720435125,936:     91  82  84
1720435125,936:     97  82  84
1720435125,936:     95  82  84
1720435125,968:     80  82  84
1720435125,968:     65  82  84
1720435125,968:     60  82  84
1720435125,968:     66  82  84
1720435125,968:     73  82  84
1720435125,968:     74  82  84
1720435125,968:     69  82  84
1720435125,968:     64  82  84
1720435125,968:     67  82  84
1720435125,968:     78  82  84
1720435125,968:     94  82  84
1720435125,968:    106  82  84
1720435125,968:    108  82  84
1720435125,968:     99  82  84
1720435125,968:     90  82  84
1720435126,000:     90  82  84
1720435126,000:     98  82  84
1720435126,000:    101  82  84
1720435126,000:     91  82  84
1720435126,000:     72  82  84
1720435126,000:     61  82  84
1720435126,000:     64  82  84
1720435126,000:     75  82  84
1720435126,000:     81  82  84
1720435126,000:     80  82  84
1720435126,000:     79  82  84
1720435126,000:     84  82  84
1720435126,000:     93  82  84
1720435126,000:    101  82  84
1720435126,000:    107  82  84
1720435126,031:    111  82  84
1720435126,031:    111  82  84
1720435126,031:    103  82  84
1720435126,031:     90  82  84
1720435126,031:     81  82  84
1720435126,031:     79  82  84
1720435126,031:     81  82  84
1720435126,031:     75  82  84
1720435126,031:     60  82  84
1720435126,031:     48  82  84
1720435126,031:     46  82  84
1720435126,031:     55  82  84
1720435126,031:     60  82  84
1720435126,031:     56  82  84
1720435126,031:     47  82  84
1720435126,063:     44  82  84
1720435126,063:     49  82  84
1720435126,063:     57  82  84
1720435126,063:     59  82  84
1720435126,063:     56  82  84
1720435126,063:     54  82  84
1720435126,063:     55  82  84
1720435126,063:     57  82  84
1720435126,063:     56  82  84
1720435126,063:     51  82  84
1720435126,063:     44  82  84
1720435126,063:     38  82  84
1720435126,063:     32  82  84
1720435126,063:     26  82  84
1720435126,063:     19  82  84
1720435126,063:     13  82  84
1720435126,063:     13  82  84
1720435126,063:     18  82  84
1720435126,063:     25  82  84
1720435126,063:     30  82  84
1720435126,063:     31  82  84
1720435126,063:     30  82  84
1720435126,095:     28  82  84
1720435126,095:     26  82  84
1720435126,095:     25  82  84
1720435126,095:     25  82  84
1720435126,095:     24  82  84
1720435126,095:     21  82  84
1720435126,095:     13  82  84
1720435126,095:      6  82  84
1720435126,095:      4  82  84
1720435126,095:     10  82  84
1720435126,095:     16  82  84
1720435126,095:     15  82  84
1720435126,095:      6  82  84
1720435126,095:     -2  82  84
1720435126,095:     -5  82  84
1720435126,127:     -3  82  84
1720435126,127:     -2  82  84
1720435126,127:     -4  82  84
1720435126,127:     -5  82  84
1720435126,127:     -3  82  84
1720435126,127:     -3  82  84
1720435126,127:     -6  82  84
1720435126,127:    -13  82  84
1720435126,158:    -18  82  84
1720435126,158:    -20  82  84
1720435126,158:    -21  82  84
1720435126,158:    -24  82  84
1720435126,158:    -30  82  84
1720435126,158:    -35  82  84
1720435126,158:    -38  82  84
1720435126,158:    -39  82  84
1720435126,158:    -38  82  84
1720435126,158:    -39  82  84
1720435126,158:    -43  82  84
1720435126,158:    -48  82  84
1720435126,158:    -43  82  84
1720435126,158:    -23  82  84
1720435126,158:      8  82  84
1720435126,158:     33  82  84
1720435126,158:     43  82  84
1720435126,158:     43  82  84
1720435126,158:     47  82  84
1720435126,158:     62  82  84
1720435126,158:     78  82  84
1720435126,158:     80  82  84
1720435126,189:     64  82  84
1720435126,189:     42  82  84
1720435126,189:     29  82  84
1720435126,189:     33  82  84
1720435126,189:     51  82  84
1720435126,189:     71  82  84
1720435126,189:     86  82  84
1720435126,189:     96  82  84
1720435126,189:    101  82  84
1720435126,189:    104  82  84
1720435126,189:    101  82  84
1720435126,189:     89  82  84
1720435126,189:     72  82  84
1720435126,189:     56  82  84
1720435126,189:     44  82  84
1720435126,221:     30  82  84
1720435126,221:     13  82  84
1720435126,221:     -2  82  84
1720435126,221:     -6  82  84
1720435126,221:      7  82  84
1720435126,221:     26  82  84
1720435126,221:     35  82  84
1720435126,221:     29  82  84
1720435126,221:     16  82  84
1720435126,221:      4  82  84
1720435126,221:     -3  82  84
1720435126,221:     -8  82  84
1720435126,221:    -10  82  84
1720435126,221:     -8  82  84
1720435126,221:      0  82  84
1720435126,252:     11  82  84
1720435126,252:     25  82  84
1720435126,252:     40  82  84
1720435126,252:     50  82  84
1720435126,252:     47  82  84
1720435126,252:     21  82  84
1720435126,252:    -40  82  84
1720435126,252:   -155  82  84
1720435126,252:   -336  82  84
1720435126,252:   -577  82  84
1720435126,252:   -847  82  84
1720435126,252:  -1091  82  84
1720435126,252:  -1258  82  84
1720435126,252:  -1326  82  84
1720435126,252:  -1283  82  84
1720435126,284:  -1095  82  84
1720435126,284:   -699  82  84
1720435126,284:    -37  82  84
1720435126,284:    895  82  84
1720435126,284:   2015  82  84
1720435126,284:   3185  82  84
1720435126,284:   4269  82  84
1720435126,284:   5161  82  84
1720435126,284:   5793  82  84
1720435126,284:   6121  82  84
1720435126,284:   6135  82  84
1720435126,284:   5868  82  84
1720435126,284:   5381  82  84
1720435126,284:   4733  82  84
1720435126,284:   3974  82  84
1720435126,316:   3167  84  83
1720435126,316:   2416  84  83
1720435126,316:   1828  84  83
1720435126,316:   1451  84  83
1720435126,316:   1226  84  83
1720435126,316:   1035  84  83
1720435126,316:    798  84  83
1720435126,316:    515  84  83
1720435126,316:    239  84  83
1720435126,316:      1  84  83
1720435126,316:   -222  84  83
1720435126,316:   -464  84  83
1720435126,316:   -730  84  83
1720435126,316:   -978  84  83
1720435126,316:  -1170  84  83
1720435126,316:  -1289  84  83
1720435126,316:  -1342  84  83
1720435126,316:  -1339  84  83
1720435126,316:  -1295  84  83
1720435126,316:  -1240  84  83
1720435126,316:  -1210  84  83
1720435126,316:  -1228  84  83
1720435126,316:  -1284  84  83
1720435126,347:  -1341  84  83
1720435126,347:  -1366  84  83
1720435126,347:  -1353  84  83
1720435126,347:  -1319  84  83
1720435126,347:  -1282  84  83
1720435126,347:  -1245  84  83
1720435126,347:  -1208  84  83
1720435126,378:  -1173  84  83
1720435126,378:  -1149  84  83
1720435126,378:  -1138  84  83
1720435126,378:  -1132  84  83
1720435126,378:  -1121  84  83
1720435126,378:  -1101  84  83
1720435126,378:  -1076  84  83
1720435126,378:  -1052  84  83
1720435126,378:  -1025  84  83
1720435126,378:   -993  84  83
1720435126,378:   -960  84  83
1720435126,378:   -932  84  83
1720435126,378:   -915  84  83
1720435126,378:   -904  84  83
1720435126,378:   -892  84  83
1720435126,378:   -874  84  83
1720435126,378:   -852  84  83
1720435126,378:   -830  84  83
1720435126,378:   -809  84  83
1720435126,378:   -787  84  83
1720435126,378:   -767  84  83
1720435126,378:   -752  84  83
1720435126,378:   -746  84  83
1720435126,410:   -747  84  83
1720435126,410:   -751  84  83
1720435126,410:   -752  84  83
1720435126,410:   -750  84  83
1720435126,410:   -744  84  83
1720435126,410:   -736  84  83
1720435126,410:   -732  84  83
1720435126,410:   -734  84  83
1720435126,410:   -741  84  83
1720435126,410:   -745  84  83
1720435126,410:   -739  84  83
1720435126,410:   -731  84  83
1720435126,410:   -729  84  83
1720435126,410:   -738  84  83
1720435126,410:   -750  84  83
1720435126,442:   -752  84  83
1720435126,442:   -744  84  83
1720435126,442:   -736  84  83
1720435126,442:   -737  84  83
1720435126,442:   -745  84  83
1720435126,442:   -751  84  83
1720435126,442:   -753  84  83
1720435126,442:   -752  84  83
1720435126,442:   -752  84  83
1720435126,442:   -748  84  83
1720435126,442:   -740  84  83
1720435126,442:   -731  84  83
1720435126,442:   -729  84  83
1720435126,442:   -734  84  83
1720435126,442:   -737  84  83
1720435126,474:   -729  84  83
1720435126,474:   -710  84  83
1720435126,474:   -690  84  83
1720435126,474:   -675  84  83
1720435126,474:   -660  84  83
1720435126,474:   -639  84  83
1720435126,474:   -613  84  83
1720435126,474:   -585  84  83
1720435126,474:   -559  84  83
1720435126,474:   -531  84  83
1720435126,474:   -500  84  83
1720435126,474:   -470  84  83
1720435126,474:   -446  84  83
1720435126,474:   -423  84  83
1720435126,474:   -392  84  83
1720435126,505:   -353  84  83
1720435126,505:   -316  84  83
1720435126,505:   -290  84  83
1720435126,505:   -268  84  83
1720435126,505:   -238  84  83
1720435126,505:   -195  84  83
1720435126,505:   -152  84  83
1720435126,505:   -121  84  83
1720435126,505:    -99  84  83
1720435126,505:    -74  84  83
1720435126,505:    -40  84  83
1720435126,505:     -2  84  83
1720435126,505:     30  84  83
1720435126,505:     56  84  83
1720435126,505:     83  84  83
1720435126,537:    116  84  83
1720435126,537:    151  84  83
1720435126,537:    180  84  83
1720435126,537:    201  84  83
1720435126,537:    216  84  83
1720435126,537:    229  84  83
1720435126,537:    241  84  83
1720435126,537:    252  84  83
1720435126,537:    261  84  83
1720435126,537:    267  84  83
1720435126,537:    275  84  83
1720435126,537:    286  84  83
1720435126,537:    302  84  83
1720435126,537:    322  84  83
1720435126,537:    339  84  83
1720435126,537:    351  84  83
1720435126,537:    356  84  83
1720435126,537:    356  84  83
1720435126,537:    353  84  83
1720435126,537:    347  84  83
1720435126,537:    339  84  83
1720435126,537:    326  84  83
1720435126,569:    308  84  83
1720435126,569:    289  84  83
1720435126,569:    276  84  83
1720435126,569:    276  84  83
1720435126,569:    281  84  83
1720435126,569:    283  84  83
1720435126,569:    277  84  83
1720435126,569:    272  84  83
1720435126,569:    278  84  83
1720435126,569:    288  84  83
1720435126,569:    288  84  83
1720435126,569:    272  84  83
1720435126,569:    249  84  83
1720435126,569:    235  84  83
1720435126,569:    236  84  83
1720435126,569:    241  84  83
1720435126,569:    239  84  83
1720435126,569:    230  84  83
1720435126,569:    221  84  83
1720435126,569:    215  84  83
1720435126,601:    212  84  83
1720435126,601:    208  84  83
1720435126,601:    205  84  83
1720435126,601:    203  84  83
1720435126,601:    199  84  83
1720435126,601:    190  84  83
1720435126,601:    179  84  83
1720435126,601:    174  84  83
1720435126,601:    175  84  83
1720435126,601:    176  84  83
1720435126,601:    166  84  83
1720435126,601:    148  84  83
1720435126,601:    133  84  83
1720435126,601:    131  84  83
1720435126,601:    136  84  83
1720435126,633:    136  84  83
1720435126,633:    126  84  83
1720435126,633:    114  84  83
1720435126,633:    113  84  83
1720435126,633:    121  84  83
1720435126,633:    126  84  83
1720435126,633:    119  84  83
1720435126,633:    105  84  83
1720435126,633:     98  84  83
1720435126,633:    101  84  83
1720435126,633:    105  84  83
1720435126,633:    100  84  83
1720435126,633:     89  84  83
1720435126,633:     84  84  83
1720435126,633:     87  84  83
1720435126,665:     88  84  83
1720435126,665:     80  84  83
1720435126,665:     65  84  83
1720435126,665:     55  84  83
1720435126,665:     53  84  83
1720435126,665:     52  84  83
1720435126,665:     44  84  83
1720435126,665:     32  84  83
1720435126,665:     25  84  83
1720435126,665:     27  84  83
1720435126,665:     37  84  83
1720435126,665:     47  84  83
1720435126,665:     56  84  83
1720435126,665:     65  84  83
1720435126,665:     73  84  83
1720435126,697:     78  84  83
1720435126,697:     76  84  83
1720435126,697:     70  84  83
1720435126,697:     61  84  83
1720435126,697:     52  84  83
1720435126,697:     43  84  83
1720435126,697:     36  84  83
1720435126,697:     30  84  83
1720435126,697:     27  84  83
1720435126,697:     25  84  83
1720435126,697:     27  84  83
1720435126,697:     35  84  83
1720435126,697:     45  84  83
1720435126,697:     52  84  83
1720435126,697:     52  84  83
1720435126,728:     50  84  83
1720435126,728:     52  84  83
1720435126,728:     61  84  83
1720435126,728:     71  84  83
1720435126,728:     75  84  83
1720435126,728:     70  84  83
1720435126,728:     63  84  83
1720435126,728:     61  84  83
1720435126,728:     68  84  83
1720435126,728:     79  84  83
1720435126,728:     89  84  83
1720435126,728:     92  84  83
1720435126,728:     87  84  83
1720435126,728:     77  84  83
1720435126,728:     73  84  83
1720435126,759:     78  84  83
1720435126,759:     91  84  83
1720435126,759:    100  84  83
1720435126,759:     96  84  83
1720435126,759:     83  84  83
1720435126,759:     74  84  83
1720435126,759:     79  84  83
1720435126,759:     95  84  83
1720435126,759:    105  84  83
1720435126,759:    101  84  83
1720435126,759:     84  84  83
1720435126,759:     70  84  83
1720435126,759:     67  84  83
1720435126,759:     71  84  83
1720435126,759:     70  84  83
1720435126,791:     63  84  83
1720435126,791:     55  84  83
1720435126,791:     55  84  83
1720435126,791:     61  84  83
1720435126,791:     65  84  83
1720435126,791:     63  84  83
1720435126,791:     55  84  83
1720435126,791:     51  84  83
1720435126,791:     55  84  83
1720435126,791:     64  84  83
1720435126,791:     71  84  83
1720435126,791:     70  84  83
1720435126,791:     62  84  83
1720435126,791:     54  84  83
1720435126,791:     52  84  83
1720435126,822:     57  84  83
1720435126,822:     63  84  83
1720435126,822:     59  84  83
1720435126,822:     49  84  83
1720435126,822:     40  84  83
1720435126,822:     41  84  83
1720435126,822:     46  84  83
1720435126,822:     47  84  83
1720435126,822:     40  84  83
1720435126,822:     33  84  83
1720435126,822:     33  84  83
1720435126,822:     39  84  83
1720435126,822:     40  84  83
1720435126,822:     34  84  83
1720435126,822:     25  84  83
1720435126,854:     18  84  83
1720435126,854:     15  84  83
1720435126,854:     14  84  83
1720435126,854:      9  84  83
1720435126,854:     -2  84  83
1720435126,854:    -13  84  83
1720435126,854:    -21  84  83
1720435126,854:    -22  84  83
1720435126,854:    -16  84  83
1720435126,854:     -9  84  83
1720435126,854:     -5  84  83
1720435126,854:     -5  84  83
1720435126,854:     -6  84  83
1720435126,854:     -8  84  83
1720435126,854:    -16  84  83
1720435126,885:    -26  84  83
1720435126,885:    -33  84  83
1720435126,885:    -27  84  83
1720435126,885:    -12  84  83
1720435126,885:      5  84  83
1720435126,885:     17  84  83
1720435126,885:     26  84  83
1720435126,885:     39  84  83
1720435126,885:     56  84  83
1720435126,885:     72  84  83
1720435126,885:     79  84  83
1720435126,885:     74  84  83
1720435126,885:     59  84  83
1720435126,885:     44  84  83
1720435126,885:     37  84  83
1720435126,885:     42  84  83
1720435126,885:     56  84  83
1720435126,885:     69  84  83
1720435126,885:     79  84  83
1720435126,885:     84  84  83
1720435126,885:     89  84  83
1720435126,885:     90  84  83
1720435126,885:     84  84  83
1720435126,917:     70  84  83
1720435126,917:     53  84  83
1720435126,917:     37  84  83
1720435126,917:     22  84  83
1720435126,917:      4  84  83
1720435126,917:    -13  84  83
1720435126,917:    -21  84  83
1720435126,917:    -18  84  83
1720435126,917:     -8  84  83
1720435126,917:     -1  84  83
1720435126,917:     -1  84  83
1720435126,917:     -7  84  83
1720435126,917:    -18  84  83
1720435126,917:    -31  84  83
1720435126,917:    -44  84  83
1720435126,948:    -49  84  83
1720435126,948:    -43  84  83
1720435126,948:    -32  84  83
1720435126,948:    -22  84  83
1720435126,948:    -10  84  83
1720435126,948:     11  84  83
1720435126,948:     37  84  83
1720435126,948:     50  84  83
1720435126,948:     30  84  83
1720435126,948:    -36  84  83
1720435126,948:   -149  84  83
1720435126,948:   -307  84  83
1720435126,948:   -516  84  83
1720435126,948:   -769  84  83
1720435126,948:  -1030  84  83
1720435126,980:  -1236  84  83
1720435126,980:  -1335  84  83
1720435126,980:  -1305  84  83
1720435126,980:  -1137  84  83
1720435126,980:   -795  84  83
1720435126,980:   -219  84  83
1720435126,980:    635  84  83
1720435126,980:   1732  84  83
1720435126,980:   2944  84  83
1720435126,980:   4107  84  83
1720435126,980:   5088  84  83
1720435126,980:   5813  84  83
1720435126,980:   6251  84  83
1720435126,980:   6397  84  83
1720435126,980:   6260  84  83
1720435127,012:   5864  85  84
1720435127,012:   5251  85  84
1720435127,012:   4479  85  84
1720435127,012:   3628  85  84
1720435127,012:   2808  85  84
1720435127,012:   2131  85  84
1720435127,012:   1653  85  84
1720435127,012:   1339  85  84
1720435127,012:   1088  85  84
1720435127,012:    817  85  84
1720435127,012:    512  85  84
1720435127,012:    216  85  84
1720435127,012:    -35  85  84
1720435127,012:   -253  85  84
1720435127,012:   -480  85  84
1720435127,042:   -738  85  84
1720435127,042:  -1001  85  84
1720435127,042:  -1221  85  84
1720435127,042:  -1361  85  84
1720435127,042:  -1417  85  84
1720435127,042:  -1408  85  84
1720435127,042:  -1366  85  84
1720435127,042:  -1324  85  84
1720435127,042:  -1307  85  84
1720435127,042:  -1324  85  84
1720435127,042:  -1364  85  84
1720435127,042:  -1406  85  84
1720435127,042:  -1432  85  84
1720435127,042:  -1438  85  84
1720435127,042:  -1424  85  84
1720435127,042:  -1393  85  84
1720435127,042:  -1345  85  84
1720435127,042:  -1292  85  84
1720435127,042:  -1250  85  84
1720435127,042:  -1227  85  84
1720435127,042:  -1218  85  84
1720435127,042:  -1210  85  84
1720435127,073:  -1194  85  84
1720435127,073:  -1173  85  84
1720435127,073:  -1148  85  84
1720435127,073:  -1118  85  84
1720435127,073:  -1081  85  84
1720435127,073:  -1041  85  84
1720435127,073:  -1007  85  84
1720435127,073:   -981  85  84
1720435127,104:   -961  85  84
1720435127,104:   -943  85  84
1720435127,104:   -930  85  84
1720435127,104:   -921  85  84
1720435127,104:   -912  85  84
1720435127,104:   -895  85  84
1720435127,104:   -871  85  84
1720435127,104:   -852  85  84
1720435127,104:   -846  85  84
1720435127,104:   -851  85  84
1720435127,104:   -855  85  84
1720435127,104:   -850  85  84
1720435127,104:   -837  85  84
1720435127,104:   -826  85  84
1720435127,104:   -819  85  84
1720435127,104:   -815  85  84
1720435127,104:   -809  85  84
1720435127,104:   -798  85  84
1720435127,104:   -784  85  84
1720435127,104:   -767  85  84
1720435127,104:   -756  85  84
1720435127,104:   -753  85  84
1720435127,136:   -761  85  84
1720435127,136:   -772  85  84
1720435127,136:   -777  85  84
1720435127,136:   -774  85  84
1720435127,136:   -771  85  84
1720435127,136:   -775  85  84
1720435127,136:   -787  85  84
1720435127,136:   -801  85  84
1720435127,136:   -807  85  84
1720435127,136:   -804  85  84
1720435127,136:   -799  85  84
1720435127,136:   -801  85  84
1720435127,136:   -812  85  84
1720435127,136:   -827  85  84
1720435127,136:   -836  85  84
1720435127,168:   -840  85  84
1720435127,168:   -842  85  84
1720435127,168:   -845  85  84
1720435127,168:   -848  85  84
1720435127,168:   -845  85  84
1720435127,168:   -834  85  84
1720435127,168:   -819  85  84
1720435127,168:   -799  85  84
1720435127,168:   -772  85  84
1720435127,168:   -738  85  84
1720435127,168:   -702  85  84
1720435127,168:   -670  85  84
1720435127,168:   -640  85  84
1720435127,168:   -608  85  84
1720435127,168:   -573  85  84
1720435127,200:   -541  85  84
1720435127,200:   -516  85  84
1720435127,200:   -493  85  84
1720435127,200:   -467  85  84
1720435127,200:   -434  85  84
1720435127,200:   -401  85  84
1720435127,200:   -369  85  84
1720435127,200:   -336  85  84
1720435127,200:   -296  85  84
1720435127,200:   -251  85  84
1720435127,200:   -209  85  84
1720435127,200:   -170  85  84
1720435127,200:   -133  85  84
1720435127,200:    -91  85  84
1720435127,200:    -48  85  84
1720435127,232:     -7  85  84
1720435127,232:     30  85  84
1720435127,232:     66  85  84
1720435127,232:    105  85  84
1720435127,232:    144  85  84
1720435127,232:    180  85  84
1720435127,232:    212  85  84
1720435127,232:    240  85  84
1720435127,232:    264  85  84
1720435127,232:    283  85  84
1720435127,232:    298  85  84
1720435127,232:    313  85  84
1720435127,232:    327  85  84
1720435127,232:    336  85  84
1720435127,232:    336  85  84
1720435127,263:    333  85  84
1720435127,263:    337  85  84
1720435127,263:    350  85  84
1720435127,263:    364  85  84
1720435127,263:    369  85  84
1720435127,263:    365  85  84
1720435127,263:    362  85  84
1720435127,263:    368  85  84
1720435127,263:    378  85  84
1720435127,263:    381  85  84
1720435127,263:    374  85  84
1720435127,263:    364  85  84
1720435127,263:    360  85  84
1720435127,263:    360  85  84
1720435127,263:    354  85  84
1720435127,263:    337  85  84
1720435127,263:    315  85  84
1720435127,263:    301  85  84
1720435127,263:    298  85  84
1720435127,263:    296  85  84
1720435127,263:    284  85  84
1720435127,263:    262  85  84
1720435127,263:    246  85  84
1720435127,295:    250  85  84
1720435127,295:    266  85  84
1720435127,295:    276  85  84
1720435127,295:    268  85  84
1720435127,295:    251  85  84
1720435127,295:    244  85  84
1720435127,295:    251  85  84
1720435127,326:    257  85  84
1720435127,326:    248  85  84
1720435127,326:    229  85  84
1720435127,326:    216  85  84
1720435127,326:    216  85  84
1720435127,326:    219  85  84
1720435127,326:    214  85  84
1720435127,326:    202  85  84
1720435127,326:    194  85  84
1720435127,326:    196  85  84
1720435127,326:    204  85  84
1720435127,326:    205  85  84
1720435127,326:    197  85  84
1720435127,326:    184  85  84
1720435127,326:    175  85  84
1720435127,357:    173  85  84
1720435127,357:    175  85  84
1720435127,357:    175  85  84
1720435127,357:    171  85  84
1720435127,357:    163  85  84
1720435127,357:    155  85  84
1720435127,357:    147  85  84
1720435127,357:    141  85  84
1720435127,357:    138  85  84
1720435127,357:    137  85  84
1720435127,357:    137  85  84
1720435127,357:    132  85  84
1720435127,357:    122  85  84
1720435127,357:    114  85  84
1720435127,357:    112  85  84
1720435127,357:    116  85  84
1720435127,357:    117  85  84
1720435127,357:    109  85  84
1720435127,357:     99  85  84
1720435127,357:     94  85  84
1720435127,357:     97  85  84
1720435127,357:     97  85  84
1720435127,357:     87  85  84
1720435127,389:     75  85  84
1720435127,389:     76  85  84
1720435127,389:     92  85  84
1720435127,389:    107  85  84
1720435127,389:    106  85  84
1720435127,389:     87  85  84
1720435127,389:     70  85  84
1720435127,389:     67  85  84
1720435127,389:     74  85  84
1720435127,389:     76  85  84
1720435127,389:     65  85  84
1720435127,389:     48  85  84
1720435127,389:     37  85  84
1720435127,389:     40  85  84
1720435127,389:     52  85  84
1720435127,420:     63  85  84
1720435127,420:     67  85  84
1720435127,420:     66  85  84
1720435127,420:     65  85  84
1720435127,420:     65  85  84
1720435127,420:     66  85  84
1720435127,420:     66  85  84
1720435127,420:     67  85  84
1720435127,420:     69  85  84
1720435127,420:     70  85  84
1720435127,420:     68  85  84
1720435127,420:     64  85  84
1720435127,420:     63  85  84
1720435127,420:     71  85  84
1720435127,420:     87  85  84
1720435127,452:    101  85  84
1720435127,452:    105  85  84
1720435127,452:     99  85  84
1720435127,452:     93  85  84
1720435127,452:     92  85  84
1720435127,452:     97  85  84
1720435127,452:    101  85  84
1720435127,452:    100  85  84
1720435127,452:     95  85  84
1720435127,452:     89  85  84
1720435127,452:     83  85  84
1720435127,452:     78  85  84
1720435127,452:     76  85  84
1720435127,452:     82  85  84
1720435127,452:     92  85  84
1720435127,452:     98  85  84
1720435127,452:     93  85  84
1720435127,452:     80  85  84
1720435127,452:     72  85  84
1720435127,452:     77  85  84
1720435127,452:     87  85  84
1720435127,452:     89  85  84
1720435127,483:     78  85  84
1720435127,483:     66  85  84
1720435127,483:     65  85  84
1720435127,483:     74  85  84
1720435127,483:     82  85  84
1720435127,483:     79  85  84
1720435127,483:     70  85  84
1720435127,483:     66  85  84
1720435127,515:     67  85  84
1720435127,515:     68  85  84
1720435127,515:     65  85  84
1720435127,515:     61  85  84
1720435127,515:     62  85  84
1720435127,515:     66  85  84
1720435127,515:     70  85  84
1720435127,515:     74  85  84
1720435127,515:     82  85  84
1720435127,515:     93  85  84
1720435127,515:    100  85  84
1720435127,515:     98  85  84
1720435127,515:     91  85  84
1720435127,515:     84  85  84
1720435127,515:     78  85  84
1720435127,548:     68  85  84
1720435127,548:     55  85  84
1720435127,548:     43  85  84
1720435127,548:     37  85  84
1720435127,548:     36  85  84
1720435127,548:     34  85  84
1720435127,548:     32  85  84
1720435127,548:     34  85  84
1720435127,548:     38  85  84
1720435127,548:     41  85  84
1720435127,548:     37  85  84
1720435127,548:     29  85  84
1720435127,548:     22  85  84
1720435127,548:     14  85  84
1720435127,548:      5  85  84
1720435127,548:     -4  85  84
1720435127,548:     -3  85  84
1720435127,548:     10  85  84
1720435127,548:     33  85  84
1720435127,548:     55  85  84
1720435127,548:     72  85  84
1720435127,548:     84  85  84
1720435127,580:     94  85  84
1720435127,580:    104  85  84
1720435127,580:    113  85  84
1720435127,580:    117  85  84
1720435127,580:    113  85  84
1720435127,580:     98  85  84
1720435127,580:     76  85  84
1720435127,580:     60  85  84
1720435127,580:     61  85  84
1720435127,580:     77  85  84
1720435127,580:     96  85  84
1720435127,580:    107  85  84
1720435127,611:    109  85  84
1720435127,611:    110  85  84
1720435127,611:    114  85  84
1720435127,611:    119  85  84
1720435127,611:    116  85  84
1720435127,611:    103  85  84
1720435127,611:     84  85  84
1720435127,611:     67  85  84
1720435127,611:     56  85  84
1720435127,611:     49  85  84
1720435127,611:     45  85  84
1720435127,611:     44  85  84
1720435127,611:     50  85  84
1720435127,611:     59  85  84
1720435127,611:     64  85  84
1720435127,643:     58  85  84
1720435127,643:     44  85  84
1720435127,643:     28  85  84
1720435127,643:     16  85  84
1720435127,643:      7  85  84
1720435127,643:     -2  85  84
1720435127,643:    -13  85  84
1720435127,643:    -18  85  84
1720435127,643:    -11  85  84
1720435127,643:     11  85  84
1720435127,643:     41  85  84
1720435127,643:     69  85  84
1720435127,643:     84  85  84
1720435127,643:     73  85  84
1720435127,643:     24  85  84
1720435127,643:    -69  85  84
1720435127,643:   -210  85  84
1720435127,643:   -404  85  84
1720435127,643:   -650  85  84
1720435127,643:   -922  85  84
1720435127,643:  -1162  85  84
1720435127,643:  -1301  85  84
1720435127,643:  -1297  85  84
1720435127,675:  -1134  85  84
1720435127,675:   -790  85  84
1720435127,675:   -211  85  84
1720435127,675:    651  85  84
1720435127,675:   1775  85  84
1720435127,675:   3031  85  84
1720435127,675:   4251  85  84
1720435127,675:   5302  85  84
1720435127,675:   6124  85  84
1720435127,675:   6682  85  84
1720435127,675:   6934  85  84
1720435127,675:   6845  85  84
1720435127,675:   6434  85  84
1720435127,675:   5785  85  84
1720435127,675:   4997  85  84
1720435127,707:   4151  87  84
1720435127,707:   3316  87  84
1720435127,707:   2566  87  84
1720435127,707:   1959  87  84
1720435127,707:   1504  87  84
1720435127,707:   1142  87  84
1720435127,707:    807  87  84
1720435127,707:    471  87  84
1720435127,707:    148  87  84
1720435127,707:   -143  87  84
1720435127,707:   -412  87  84
1720435127,707:   -681  87  84
1720435127,707:   -950  87  84
1720435127,707:  -1194  87  84
1720435127,707:  -1380  87  84
1720435127,738:  -1495  87  84
1720435127,738:  -1539  87  84
1720435127,738:  -1530  87  84
1720435127,738:  -1490  87  84
1720435127,738:  -1447  87  84
1720435127,738:  -1422  87  84
1720435127,738:  -1422  87  84
1720435127,738:  -1440  87  84
1720435127,738:  -1463  87  84
1720435127,738:  -1480  87  84
1720435127,738:  -1485  87  84
1720435127,738:  -1474  87  84
1720435127,738:  -1439  87  84
1720435127,738:  -1382  87  84
1720435127,738:  -1315  87  84
1720435127,769:  -1255  87  84
1720435127,769:  -1221  87  84
1720435127,769:  -1213  87  84
1720435127,769:  -1217  87  84
1720435127,769:  -1216  87  84
1720435127,769:  -1200  87  84
1720435127,769:  -1171  87  84
1720435127,769:  -1137  87  84
1720435127,769:  -1106  87  84
1720435127,769:  -1078  87  84
1720435127,769:  -1053  87  84
1720435127,769:  -1032  87  84
1720435127,769:  -1013  87  84
1720435127,769:   -994  87  84
1720435127,769:   -977  87  84
1720435127,769:   -963  87  84
1720435127,769:   -954  87  84
1720435127,769:   -943  87  84
1720435127,769:   -920  87  84
1720435127,769:   -889  87  84
1720435127,769:   -863  87  84
1720435127,769:   -855  87  84
1720435127,832:   -861  87  84
1720435127,832:   -865  87  84
1720435127,832:   -857  87  84
1720435127,832:   -840  87  84
1720435127,832:   -825  87  84
1720435127,832:   -818  87  84
1720435127,832:   -812  87  84
1720435127,832:   -803  87  84
1720435127,832:   -791  87  84
1720435127,832:   -784  87  84
1720435127,832:   -786  87  84
1720435127,832:   -791  87  84
1720435127,832:   -793  87  84
1720435127,832:   -793  87  84
1720435127,832:   -793  87  84
1720435127,832:   -797  87  84
1720435127,832:   -804  87  84
1720435127,832:   -812  87  84
1720435127,832:   -819  87  84
1720435127,832:   -826  87  84
1720435127,832:   -834  87  84
1720435127,832:   -843  87  84
1720435127,832:   -850  87  84
1720435127,863:   -855  87  84
1720435127,863:   -859  87  84
1720435127,863:   -860  87  84
1720435127,863:   -859  87  84
1720435127,863:   -858  87  84
1720435127,863:   -855  87  84
1720435127,863:   -849  87  84
1720435127,863:   -835  87  84
1720435127,863:   -818  87  84
1720435127,863:   -802  87  84
1720435127,863:   -790  87  84
1720435127,863:   -779  87  84
1720435127,863:   -761  87  84
1720435127,863:   -734  87  84
1720435127,863:   -704  87  84
1720435127,894:   -678  87  84
1720435127,894:   -655  87  84
1720435127,894:   -630  87  84
1720435127,894:   -601  87  84
1720435127,894:   -568  87  84
1720435127,894:   -535  87  84
1720435127,894:   -503  87  84
1720435127,894:   -473  87  84
1720435127,894:   -441  87  84
1720435127,894:   -405  87  84
1720435127,894:   -365  87  84
1720435127,894:   -322  87  84
1720435127,894:   -275  87  84
1720435127,894:   -224  87  84
1720435127,894:   -172  87  84
1720435127,926:   -121  87  84
1720435127,926:    -70  87  84
1720435127,926:    -20  87  84
1720435127,926:     31  87  84
1720435127,926:     79  87  84
1720435127,926:    123  87  84
1720435127,926:    164  87  84
1720435127,926:    205  87  84
1720435127,926:    245  87  84
1720435127,926:    281  87  84
1720435127,926:    312  87  84
1720435127,926:    340  87  84
1720435127,926:    366  87  84
1720435127,926:    389  87  84
1720435127,926:    407  87  84
1720435127,926:    419  87  84
1720435127,926:    431  87  84
1720435127,926:    443  87  84
1720435127,926:    453  87  84
1720435127,926:    459  87  84
1720435127,926:    462  87  84
1720435127,926:    464  87  84
1720435127,958:    468  87  84
1720435127,958:    471  87  84
1720435127,958:    467  87  84
1720435127,958:    460  87  84
1720435127,958:    452  87  84
1720435127,958:    449  87  84
1720435127,958:    449  87  84
1720435127,958:    448  87  84
1720435127,990:    444  87  84
1720435127,990:    438  87  84
1720435127,990:    433  87  84
1720435127,990:    429  87  84
1720435127,990:    425  87  84
1720435127,990:    416  87  84
1720435127,990:    402  87  84
1720435127,990:    387  87  84
1720435127,990:    374  87  84
1720435127,990:    364  87  84
1720435127,990:    354  87  84
1720435127,990:    345  87  84
1720435127,990:    339  87  84
1720435127,990:    339  87  84
1720435127,990:    341  87  84
1720435127,990:    339  87  84
1720435127,990:    330  87  84
1720435127,990:    321  87  84
1720435127,990:    318  87  84
1720435127,990:    319  87  84
1720435127,990:    316  87  84
1720435127,990:    304  87  84
1720435128,021:    288  87  84
1720435128,021:    279  87  84
1720435128,021:    280  87  84
1720435128,021:    285  87  84
1720435128,021:    286  87  84
1720435128,021:    283  87  84
1720435128,021:    279  87  84
1720435128,021:    277  87  84
1720435128,021:    272  87  84
1720435128,021:    262  87  84
1720435128,021:    252  87  84
1720435128,021:    245  87  84
1720435128,021:    241  87  84
1720435128,021:    233  87  84
1720435128,021:    218  87  84
1720435128,053:    203  87  84
1720435128,053:    197  87  84
1720435128,053:    201  87  84
1720435128,053:    204  87  84
1720435128,053:    197  87  84
1720435128,053:    183  87  84
1720435128,053:    173  87  84
1720435128,053:    175  87  84
1720435128,053:    180  87  84
1720435128,053:    176  87  84
1720435128,053:    164  87  84
1720435128,053:    153  87  84
1720435128,053:    151  87  84
1720435128,053:    155  87  84
1720435128,053:    156  87  84
1720435128,085:    152  87  84
1720435128,085:    147  87  84
1720435128,085:    146  87  84
1720435128,085:    147  87  84
1720435128,085:    149  87  84
1720435128,085:    148  87  84
1720435128,085:    144  87  84
1720435128,085:    138  87  84
1720435128,085:    132  87  84
1720435128,085:    127  87  84
1720435128,085:    123  87  84
1720435128,085:    119  87  84
1720435128,085:    117  87  84
1720435128,085:    118  87  84
1720435128,085:    123  87  84
1720435128,117:    127  87  84
1720435128,117:    125  87  84
1720435128,117:    118  87  84
1720435128,117:    114  87  84
1720435128,117:    117  87  84
1720435128,117:    124  87  84
1720435128,117:    128  87  84
1720435128,117:    124  87  84
1720435128,117:    119  87  84
1720435128,117:    120  87  84
1720435128,117:    129  87  84
1720435128,117:    137  87  84
1720435128,117:    138  87  84
1720435128,117:    131  87  84
1720435128,117:    126  87  84
1720435128,117:    125  87  84
1720435128,117:    127  87  84
1720435128,117:    124  87  84
1720435128,117:    118  87  84
1720435128,117:    116  87  84
1720435128,117:    119  87  84
1720435128,117:    125  87  84
1720435128,117:    127  87  84
1720435128,149:    124  87  84
1720435128,149:    124  87  84
1720435128,149:    129  87  84
1720435128,149:    133  87  84
1720435128,149:    130  87  84
1720435128,149:    120  87  84
1720435128,149:    113  87  84
1720435128,149:    116  87  84
1720435128,149:    126  87  84
1720435128,149:    130  87  84
1720435128,149:    126  87  84
1720435128,149:    119  87  84
1720435128,149:    120  87  84
1720435128,149:    130  87  84
1720435128,149:    142  87  84
1720435128,181:    145  87  84
1720435128,181:    137  87  84
1720435128,181:    126  87  84
1720435128,181:    125  87  84
1720435128,181:    134  87  84
1720435128,181:    144  87  84
1720435128,181:    147  87  84
1720435128,181:    141  87  84
1720435128,181:    136  87  84
1720435128,181:    136  87  84
1720435128,181:    142  87  84
1720435128,181:    146  87  84
1720435128,181:    146  87  84
1720435128,181:    144  87  84
1720435128,181:    141  87  84
1720435128,213:    137  87  84
1720435128,213:    129  87  84
1720435128,213:    120  87  84
1720435128,213:    116  87  84
1720435128,213:    113  87  84
1720435128,213:    103  87  84
1720435128,213:     84  87  84
1720435128,213:     63  87  84
1720435128,213:     53  87  84
1720435128,213:     57  87  84
1720435128,213:     64  87  84
1720435128,213:     61  87  84
1720435128,213:     49  87  84
1720435128,213:     37  87  84
1720435128,213:     35  87  84
1720435128,213:     43  87  84
1720435128,213:     52  87  84
1720435128,213:     52  87  84
1720435128,213:     44  87  84
1720435128,213:     34  87  84
1720435128,213:     25  87  84
1720435128,213:     22  87  84
1720435128,246:     25  87  84
1720435128,246:     34  87  84
1720435128,246:     47  87  84
1720435128,246:     60  87  84
1720435128,246:     70  87  84
1720435128,246:     79  87  84
1720435128,246:     93  87  84
1720435128,246:    117  87  84
1720435128,278:    139  87  84
1720435128,278:    145  87  84
1720435128,278:    133  87  84
1720435128,278:    112  87  84
1720435128,278:     99  87  84
1720435128,278:     97  87  84
1720435128,278:     96  87  84
1720435128,278:     89  87  84
1720435128,278:     82  87  84
1720435128,278:     87  87  84
1720435128,278:    107  87  84
1720435128,278:    132  87  84
1720435128,278:    149  87  84
1720435128,278:    159  87  84
1720435128,278:    163  87  84
1720435128,309:    164  87  84
1720435128,309:    156  87  84
1720435128,309:    139  87  84
1720435128,309:    116  87  84
1720435128,309:     97  87  84
1720435128,309:     84  87  84
1720435128,309:     74  87  84
1720435128,309:     68  87  84
1720435128,309:     68  87  84
1720435128,309:     75  87  84
1720435128,309:     86  87  84
1720435128,309:     96  87  84
1720435128,309:    104  87  84
1720435128,309:    108  87  84
1720435128,309:    106  87  84
1720435128,341:     95  87  84
1720435128,341:     78  87  84
1720435128,341:     60  87  84
1720435128,341:     46  87  84
1720435128,341:     36  87  84
1720435128,341:     28  87  84
1720435128,341:     23  87  84
1720435128,341:     27  87  84
1720435128,341:     45  87  84
1720435128,341:     72  87  84
1720435128,341:    100  87  84
1720435128,341:    118  87  84
1720435128,341:    111  87  84
1720435128,341:     69  87  84
1720435128,341:    -15  87  84
1720435128,341:   -140  87  84
1720435128,341:   -313  87  84
1720435128,341:   -541  87  84
1720435128,341:   -807  87  84
1720435128,341:  -1058  87  84
1720435128,341:  -1221  87  84
1720435128,341:  -1247  87  84
1720435128,371:  -1120  87  84
1720435128,371:   -823  87  84
1720435128,371:   -299  87  84
1720435128,371:    515  87  84
1720435128,371:   1612  87  84
1720435128,371:   2871  87  84
1720435128,371:   4118  87  84
1720435128,371:   5217  87  84
1720435128,371:   6109  87  84
1720435128,371:   6763  87  84
1720435128,371:   7131  87  84
1720435128,371:   7155  87  84
1720435128,371:   6827  87  84
1720435128,371:   6214  87  84
1720435128,371:   5429  87  84
1720435128,403:   4576  87  86
1720435128,403:   3733  87  86
1720435128,403:   2952  87  86
1720435128,403:   2269  87  86
1720435128,403:   1697  87  86
1720435128,403:   1225  87  86
1720435128,403:    828  87  86
1720435128,403:    481  87  86
1720435128,403:    163  87  86
1720435128,403:   -146  87  86
1720435128,403:   -450  87  86
1720435128,403:   -741  87  86
1720435128,403:  -1006  87  86
1720435128,403:  -1230  87  86
1720435128,403:  -1407  87  86
1720435128,435:  -1528  87  86
1720435128,435:  -1583  87  86
1720435128,435:  -1579  87  86
1720435128,435:  -1542  87  86
1720435128,435:  -1504  87  86
1720435128,435:  -1482  87  86
1720435128,435:  -1478  87  86
1720435128,435:  -1487  87  86
1720435128,435:  -1505  87  86
1720435128,435:  -1528  87  86
1720435128,435:  -1546  87  86
1720435128,435:  -1545  87  86
1720435128,435:  -1515  87  86
1720435128,435:  -1462  87  86
1720435128,435:  -1402  87  86
1720435128,467:  -1350  87  86
1720435128,467:  -1315  87  86
1720435128,467:  -1295  87  86
1720435128,467:  -1285  87  86
1720435128,467:  -1277  87  86
1720435128,467:  -1264  87  86
1720435128,467:  -1239  87  86
1720435128,467:  -1203  87  86
1720435128,467:  -1161  87  86
1720435128,467:  -1124  87  86
1720435128,467:  -1094  87  86
1720435128,467:  -1069  87  86
1720435128,467:  -1049  87  86
1720435128,467:  -1032  87  86
1720435128,467:  -1017  87  86
1720435128,499:  -1000  87  86
1720435128,499:   -974  87  86
1720435128,499:   -945  87  86
1720435128,499:   -920  87  86
1720435128,499:   -906  87  86
1720435128,499:   -901  87  86
1720435128,499:   -895  87  86
1720435128,499:   -884  87  86
1720435128,499:   -873  87  86
1720435128,499:   -869  87  86
1720435128,499:   -870  87  86
1720435128,499:   -868  87  86
1720435128,499:   -857  87  86
1720435128,499:   -839  87  86
1720435128,499:   -822  87  86
1720435128,530:   -811  87  86
1720435128,530:   -804  87  86
1720435128,530:   -799  87  86
1720435128,530:   -796  87  86
1720435128,530:   -796  87  86
1720435128,530:   -802  87  86
1720435128,530:   -811  87  86
1720435128,530:   -820  87  86
1720435128,530:   -827  87  86
1720435128,530:   -835  87  86
1720435128,530:   -846  87  86
1720435128,530:   -857  87  86
1720435128,530:   -865  87  86
1720435128,530:   -866  87  86
1720435128,530:   -862  87  86
1720435128,561:   -859  87  86
1720435128,561:   -862  87  86
1720435128,561:   -870  87  86
1720435128,561:   -875  87  86
1720435128,561:   -872  87  86
1720435128,561:   -861  87  86
1720435128,561:   -851  87  86
1720435128,561:   -848  87  86
1720435128,561:   -847  87  86
1720435128,561:   -839  87  86
1720435128,561:   -821  87  86
1720435128,561:   -799  87  86
1720435128,561:   -781  87  86
1720435128,561:   -771  87  86
1720435128,561:   -759  87  86
1720435128,561:   -735  87  86
1720435128,561:   -697  87  86
1720435128,561:   -657  87  86
1720435128,561:   -624  87  86
1720435128,561:   -599  87  86
1720435128,561:   -572  87  86
1720435128,561:   -537  87  86
1720435128,561:   -495  87  86
1720435128,593:   -454  87  86
1720435128,593:   -415  87  86
1720435128,593:   -374  87  86
1720435128,593:   -329  87  86
1720435128,593:   -280  87  86
1720435128,593:   -230  87  86
1720435128,593:   -179  87  86
1720435128,593:   -123  87  86
1720435128,593:    -68  87  86
1720435128,593:    -18  87  86
1720435128,593:     23  87  86
1720435128,593:     60  87  86
1720435128,624:    102  87  86
1720435128,624:    152  87  86
1720435128,624:    203  87  86
1720435128,624:    245  87  86
1720435128,624:    279  87  86
1720435128,624:    309  87  86
1720435128,624:    342  87  86
1720435128,624:    376  87  86
1720435128,624:    404  87  86
1720435128,624:    424  87  86
1720435128,624:    441  87  86
1720435128,624:    457  87  86
1720435128,624:    474  87  86
1720435128,624:    486  87  86
1720435128,624:    493  87  86
1720435128,655:    495  87  86
1720435128,655:    497  87  86
1720435128,655:    505  87  86
1720435128,655:    519  87  86
1720435128,655:    530  87  86
1720435128,655:    532  87  86
1720435128,655:    524  87  86
1720435128,655:    517  87  86
1720435128,687:    516  87  86
1720435128,687:    520  87  86
1720435128,687:    518  87  86
1720435128,687:    505  87  86
1720435128,687:    491  87  86
1720435128,687:    488  87  86
1720435128,687:    495  87  86
1720435128,687:    498  87  86
1720435128,687:    488  87  86
1720435128,687:    472  87  86
1720435128,687:    460  87  86
1720435128,687:    457  87  86
1720435128,687:    454  87  86
1720435128,687:    443  87  86
1720435128,687:    426  87  86
1720435128,687:    412  87  86
1720435128,687:    405  87  86
1720435128,687:    402  87  86
1720435128,687:    400  87  86
1720435128,687:    396  87  86
1720435128,687:    389  87  86
1720435128,687:    380  87  86
1720435128,719:    370  87  86
1720435128,719:    362  87  86
1720435128,719:    360  87  86
1720435128,719:    360  87  86
1720435128,719:    356  87  86
1720435128,719:    347  87  86
1720435128,719:    339  87  86
1720435128,719:    335  87  86
1720435128,719:    331  87  86
1720435128,719:    320  87  86
1720435128,719:    302  87  86
1720435128,719:    287  87  86
1720435128,719:    280  87  86
1720435128,719:    277  87  86
1720435128,719:    270  87  86
1720435128,719:    255  87  86
1720435128,719:    241  87  86
1720435128,719:    235  87  86
1720435128,719:    236  87  86
1720435128,719:    237  87  86
1720435128,719:    233  87  86
1720435128,719:    228  87  86
1720435128,719:    226  87  86
1720435128,751:    227  87  86
1720435128,751:    227  87  86
1720435128,751:    223  87  86
1720435128,751:    214  87  86
1720435128,751:    208  87  86
1720435128,751:    207  87  86
1720435128,751:    210  87  86
1720435128,751:    213  87  86
1720435128,751:    210  87  86
1720435128,751:    204  87  86
1720435128,751:    199  87  86
1720435128,751:    197  87  86
1720435128,751:    195  87  86
1720435128,751:    188  87  86
1720435128,751:    176  87  86
1720435128,783:    166  87  86
1720435128,783:    165  87  86
1720435128,783:    171  87  86
1720435128,783:    174  87  86
1720435128,783:    164  87  86
1720435128,783:    146  87  86
1720435128,783:    133  87  86
1720435128,783:    136  87  86
1720435128,783:    148  87  86
1720435128,783:    153  87  86
1720435128,783:    142  87  86
1720435128,783:    124  87  86
1720435128,783:    116  87  86
1720435128,783:    123  87  86
1720435128,783:    135  87  86
1720435128,815:    139  87  86
1720435128,815:    136  87  86
1720435128,815:    134  87  86
1720435128,815:    138  87  86
1720435128,815:    141  87  86
1720435128,815:    137  87  86
1720435128,815:    132  87  86
1720435128,815:    136  87  86
1720435128,815:    149  87  86
1720435128,815:    158  87  86
1720435128,815:    152  87  86
1720435128,815:    138  87  86
1720435128,815:    134  87  86
1720435128,815:    144  87  86
1720435128,815:    155  87  86
1720435128,847:    157  87  86
1720435128,847:    151  87  86
1720435128,847:    147  87  86
1720435128,847:    149  87  86
1720435128,847:    151  87  86
1720435128,847:    147  87  86
1720435128,847:    141  87  86
1720435128,847:    140  87  86
1720435128,847:    144  87  86
1720435128,847:    142  87  86
1720435128,847:    130  87  86
1720435128,847:    115  87  86
1720435128,847:    108  87  86
1720435128,847:    107  87  86
1720435128,847:    106  87  86
1720435128,878:     98  87  86
1720435128,878:     91  87  86
1720435128,878:     93  87  86
1720435128,878:    103  87  86
1720435128,878:    113  87  86
1720435128,878:    117  87  86
1720435128,878:    114  87  86
1720435128,878:    112  87  86
1720435128,878:    114  87  86
1720435128,878:    119  87  86
1720435128,878:    122  87  86
1720435128,878:    120  87  86
1720435128,878:    112  87  86
1720435128,878:    103  87  86
1720435128,878:     99  87  86
1720435128,878:    104  87  86
1720435128,878:    112  87  86
1720435128,878:    117  87  86
1720435128,878:    114  87  86
1720435128,878:    105  87  86
1720435128,878:     97  87  86
1720435128,878:     92  87  86
1720435128,909:     90  87  86
1720435128,909:     87  87  86
1720435128,909:     83  87  86
1720435128,909:     79  87  86
1720435128,909:     77  87  86
1720435128,909:     78  87  86
1720435128,909:     81  87  86
1720435128,909:     86  87  86
1720435128,909:     92  87  86
1720435128,909:     95  87  86
1720435128,909:     94  87  86
1720435128,909:     91  87  86
1720435128,909:     88  87  86
1720435128,909:     85  87  86
1720435128,909:     81  87  86
1720435128,941:     74  87  86
1720435128,941:     65  87  86
1720435128,941:     57  87  86
1720435128,941:     54  87  86
1720435128,941:     57  87  86
1720435128,941:     62  87  86
1720435128,941:     63  87  86
1720435128,941:     59  87  86
1720435128,941:     52  87  86
1720435128,941:     50  87  86
1720435128,941:     53  87  86
1720435128,941:     53  87  86
1720435128,941:     44  87  86
1720435128,941:     29  87  86
1720435128,941:     22  87  86
1720435128,973:     31  87  86
1720435128,973:     55  87  86
1720435128,973:     82  87  86
1720435128,973:    101  87  86
1720435128,973:    111  87  86
1720435128,973:    120  87  86
1720435128,973:    131  87  86
1720435128,973:    141  87  86
1720435128,973:    144  87  86
1720435128,973:    135  87  86
1720435128,973:    119  87  86
1720435128,973:    102  87  86
1720435128,973:     89  87  86
1720435128,973:     85  87  86
1720435128,973:     89  87  86
1720435129,005:    103  87  86
1720435129,005:    125  87  86
1720435129,005:    149  87  86
1720435129,005:    167  87  86
1720435129,005:    173  87  86
1720435129,005:    167  87  86
1720435129,005:    158  87  86
1720435129,005:    151  87  86
1720435129,005:    147  87  86
1720435129,005:    136  87  86
1720435129,005:    116  87  86
1720435129,005:     90  87  86
1720435129,005:     69  87  86
1720435129,005:     63  87  86
1720435129,005:     73  87  86
1720435129,036:     88  87  86
1720435129,036:     98  87  86
1720435129,036:     92  87  86
1720435129,036:     77  87  86
1720435129,036:     62  87  86
1720435129,036:     54  87  86
1720435129,036:     53  87  86
1720435129,036:     48  87  86
1720435129,036:     37  87  86
1720435129,036:     26  87  86
1720435129,036:     21  87  86
1720435129,036:     25  87  86
1720435129,036:     38  87  86
1720435129,036:     57  87  86
1720435129,036:     79  87  86
1720435129,067:     89  87  86
1720435129,067:     64  87  86
1720435129,067:     -7  87  86
1720435129,067:   -120  87  86
1720435129,067:   -270  87  86
1720435129,067:   -462  87  86
1720435129,067:   -703  87  86
1720435129,067:   -966  87  86
1720435129,067:  -1183  87  86
1720435129,067:  -1282  87  86
1720435129,067:  -1229  87  86
1720435129,067:  -1017  87  86
1720435129,067:   -616  87  86
1720435129,067:     43  87  86
1720435129,067:    998  87  86
1720435129,067:   2189  87  86
1720435129,067:   3453  87  86
1720435129,067:   4624  87  86
1720435129,067:   5607  87  86
1720435129,067:   6373  87  86
1720435129,067:   6889  87  86
1720435129,067:   7089  87  86
1720435129,067:   6926  87  86
1720435129,098:   6432  85  86
1720435129,098:   5710  85  86
1720435129,098:   4883  85  86
1720435129,098:   4041  85  86
1720435129,098:   3238  85  86
1720435129,098:   2512  85  86
1720435129,098:   1890  85  86
1720435129,098:   1377  85  86
1720435129,098:    956  85  86
1720435129,098:    599  85  86
1720435129,098:    278  85  86
1720435129,098:    -25  85  86
1720435129,098:   -320  85  86
1720435129,098:   -609  85  86
1720435129,098:   -885  85  86
1720435129,130:  -1129  85  86
1720435129,130:  -1328  85  86
1720435129,130:  -1472  85  86
1720435129,130:  -1559  85  86
1720435129,130:  -1594  85  86
1720435129,130:  -1590  85  86
1720435129,130:  -1565  85  86
1720435129,162:  -1537  85  86
1720435129,162:  -1520  85  86
1720435129,162:  -1523  85  86
1720435129,162:  -1544  85  86
1720435129,162:  -1575  85  86
1720435129,162:  -1597  85  86
1720435129,162:  -1595  85  86
1720435129,162:  -1564  85  86
1720435129,162:  -1513  85  86
1720435129,162:  -1458  85  86
1720435129,162:  -1408  85  86
1720435129,162:  -1368  85  86
1720435129,162:  -1338  85  86
1720435129,162:  -1317  85  86
1720435129,162:  -1308  85  86
1720435129,162:  -1304  85  86
1720435129,162:  -1295  85  86
1720435129,162:  -1268  85  86
1720435129,162:  -1224  85  86
1720435129,162:  -1178  85  86
1720435129,162:  -1144  85  86
1720435129,162:  -1127  85  86
1720435129,162:  -1118  85  86
1720435129,194:  -1105  85  86
1720435129,194:  -1085  85  86
1720435129,194:  -1062  85  86
1720435129,194:  -1040  85  86
1720435129,194:  -1019  85  86
1720435129,194:   -995  85  86
1720435129,194:   -970  85  86
1720435129,194:   -948  85  86
1720435129,194:   -932  85  86
1720435129,194:   -919  85  86
1720435129,194:   -908  85  86
1720435129,194:   -900  85  86
1720435129,194:   -894  85  86
1720435129,194:   -892  85  86
1720435129,194:   -889  85  86
1720435129,226:   -884  85  86
1720435129,226:   -877  85  86
1720435129,226:   -872  85  86
1720435129,226:   -868  85  86
1720435129,226:   -867  85  86
1720435129,226:   -868  85  86
1720435129,226:   -871  85  86
1720435129,226:   -874  85  86
1720435129,226:   -875  85  86
1720435129,226:   -873  85  86
1720435129,226:   -868  85  86
1720435129,226:   -863  85  86
1720435129,226:   -861  85  86
1720435129,226:   -864  85  86
1720435129,226:   -872  85  86
1720435129,258:   -884  85  86
1720435129,258:   -895  85  86
1720435129,258:   -900  85  86
1720435129,258:   -898  85  86
1720435129,258:   -894  85  86
1720435129,258:   -897  85  86
1720435129,258:   -907  85  86
1720435129,258:   -915  85  86
1720435129,258:   -912  85  86
1720435129,258:   -893  85  86
1720435129,258:   -868  85  86
1720435129,258:   -850  85  86
1720435129,258:   -844  85  86
1720435129,258:   -841  85  86
1720435129,258:   -830  85  86
1720435129,290:   -806  85  86
1720435129,290:   -775  85  86
1720435129,290:   -747  85  86
1720435129,290:   -723  85  86
1720435129,290:   -700  85  86
1720435129,290:   -672  85  86
1720435129,290:   -637  85  86
1720435129,290:   -597  85  86
1720435129,290:   -556  85  86
1720435129,290:   -515  85  86
1720435129,290:   -477  85  86
1720435129,290:   -439  85  86
1720435129,290:   -398  85  86
1720435129,290:   -353  85  86
1720435129,290:   -308  85  86
1720435129,290:   -265  85  86
1720435129,290:   -225  85  86
1720435129,290:   -182  85  86
1720435129,290:   -136  85  86
1720435129,290:    -87  85  86
1720435129,290:    -38  85  86
1720435129,290:     10  85  86
1720435129,321:     57  85  86
1720435129,321:    103  85  86
1720435129,321:    147  85  86
1720435129,321:    191  85  86
1720435129,321:    236  85  86
1720435129,321:    278  85  86
1720435129,321:    314  85  86
1720435129,321:    339  85  86
1720435129,321:    359  85  86
1720435129,321:    380  85  86
1720435129,321:    406  85  86
1720435129,321:    428  85  86
1720435129,321:    441  85  86
1720435129,321:    444  85  86
1720435129,321:    448  85  86
1720435129,353:    458  85  86
1720435129,353:    471  85  86
1720435129,353:    479  85  86
1720435129,353:    482  85  86
1720435129,353:    483  85  86
1720435129,353:    488  85  86
1720435129,353:    494  85  86
1720435129,353:    497  85  86
1720435129,385:    493  85  86
1720435129,385:    484  85  86
1720435129,385:    475  85  86
1720435129,385:    470  85  86
1720435129,385:    466  85  86
1720435129,385:    461  85  86
1720435129,385:    451  85  86
1720435129,385:    437  85  86
1720435129,385:    423  85  86
1720435129,385:    415  85  86
1720435129,385:    411  85  86
1720435129,385:    407  85  86
1720435129,385:    400  85  86
1720435129,385:    393  85  86
1720435129,385:    392  85  86
1720435129,385:    394  85  86
1720435129,385:    393  85  86
1720435129,385:    385  85  86
1720435129,385:    373  85  86
1720435129,385:    362  85  86
1720435129,385:    354  85  86
1720435129,385:    347  85  86
1720435129,416:    335  85  86
1720435129,416:    320  85  86
1720435129,416:    307  85  86
1720435129,416:    300  85  86
1720435129,416:    298  85  86
1720435129,416:    297  85  86
1720435129,416:    291  85  86
1720435129,416:    280  85  86
1720435129,416:    269  85  86
1720435129,416:    262  85  86
1720435129,416:    262  85  86
1720435129,416:    262  85  86
1720435129,416:    256  85  86
1720435129,416:    244  85  86
1720435129,416:    231  85  86
1720435129,448:    224  85  86
1720435129,448:    222  85  86
1720435129,448:    220  85  86
1720435129,448:    213  85  86
1720435129,448:    204  85  86
1720435129,448:    200  85  86
1720435129,448:    203  85  86
1720435129,448:    205  85  86
1720435129,448:    198  85  86
1720435129,448:    184  85  86
1720435129,448:    169  85  86
1720435129,448:    163  85  86
1720435129,448:    163  85  86
1720435129,448:    159  85  86
1720435129,448:    146  85  86
1720435129,479:    130  85  86
1720435129,479:    125  85  86
1720435129,479:    133  85  86
1720435129,479:    144  85  86
1720435129,479:    145  85  86
1720435129,479:    136  85  86
1720435129,479:    128  85  86
1720435129,479:    130  85  86
1720435129,479:    140  85  86
1720435129,479:    147  85  86
1720435129,479:    145  85  86
1720435129,479:    138  85  86
1720435129,479:    133  85  86
1720435129,479:    133  85  86
1720435129,479:    133  85  86
1720435129,510:    129  85  86
1720435129,510:    124  85  86
1720435129,510:    125  85  86
1720435129,510:    130  85  86
1720435129,510:    133  85  86
1720435129,510:    129  85  86
1720435129,510:    124  85  86
1720435129,510:    124  85  86
1720435129,510:    132  85  86
1720435129,510:    139  85  86
1720435129,510:    138  85  86
1720435129,510:    131  85  86
1720435129,510:    129  85  86
1720435129,510:    136  85  86
1720435129,510:    148  85  86
1720435129,510:    152  85  86
1720435129,510:    147  85  86
1720435129,510:    140  85  86
1720435129,510:    139  85  86
1720435129,510:    144  85  86
1720435129,510:    147  85  86
1720435129,510:    142  85  86
1720435129,510:    133  85  86
1720435129,542:    130  85  86
1720435129,542:    132  85  86
1720435129,542:    134  85  86
1720435129,542:    131  85  86
1720435129,542:    124  85  86
1720435129,542:    121  85  86
1720435129,542:    126  85  86
1720435129,542:    133  85  86
1720435129,542:    137  85  86
1720435129,542:    134  85  86
1720435129,542:    128  85  86
1720435129,542:    125  85  86
1720435129,542:    127  85  86
1720435129,542:    133  85  86
1720435129,542:    138  85  86
1720435129,573:    139  85  86
1720435129,573:    136  85  86
1720435129,573:    133  85  86
1720435129,573:    134  85  86
1720435129,573:    138  85  86
1720435129,573:    139  85  86
1720435129,573:    133  85  86
1720435129,573:    123  85  86
1720435129,573:    114  85  86
1720435129,573:    108  85  86
1720435129,573:    106  85  86
1720435129,573:    105  85  86
1720435129,605:    106  85  86
1720435129,605:    108  85  86
1720435129,605:    109  85  86
1720435129,605:    108  85  86
1720435129,605:    109  85  86
1720435129,605:    114  85  86
1720435129,605:    121  85  86
1720435129,605:    124  85  86
1720435129,605:    121  85  86
1720435129,605:    116  85  86
1720435129,605:    113  85  86
1720435129,605:    109  85  86
1720435129,605:    101  85  86
1720435129,605:     90  85  86
1720435129,605:     82  85  86
1720435129,637:     81  85  86
1720435129,637:     82  85  86
1720435129,637:     79  85  86
1720435129,637:     74  85  86
1720435129,637:     74  85  86
1720435129,637:     81  85  86
1720435129,637:     89  85  86
1720435129,637:     90  85  86
1720435129,637:     86  85  86
1720435129,637:     84  85  86
1720435129,637:     85  85  86
1720435129,637:     85  85  86
1720435129,637:     78  85  86
1720435129,637:     68  85  86
1720435129,637:     60  85  86
1720435129,669:     56  85  86
1720435129,669:     52  85  86
1720435129,669:     45  85  86
1720435129,669:     39  85  86
1720435129,669:     38  85  86
1720435129,669:     41  85  86
1720435129,669:     44  85  86
1720435129,669:     45  85  86
1720435129,669:     44  85  86
1720435129,669:     41  85  86
1720435129,669:     37  85  86
1720435129,669:     30  85  86
1720435129,669:     21  85  86
1720435129,669:     16  85  86
1720435129,669:     17  85  86
1720435129,701:     27  85  86
1720435129,701:     43  85  86
1720435129,701:     59  85  86
1720435129,701:     74  85  86
1720435129,701:     87  85  86
1720435129,701:     99  85  86
1720435129,701:    109  85  86
1720435129,701:    115  85  86
1720435129,701:    116  85  86
1720435129,701:    115  85  86
1720435129,701:    113  85  86
1720435129,701:    108  85  86
1720435129,701:    102  85  86
1720435129,701:     99  85  86
1720435129,701:    105  85  86
1720435129,701:    121  85  86
1720435129,701:    138  85  86
1720435129,701:    145  85  86
1720435129,701:    140  85  86
1720435129,701:    127  85  86
1720435129,701:    115  85  86
1720435129,701:    105  85  86
1720435129,733:     95  85  86
1720435129,733:     81  85  86
1720435129,733:     65  85  86
1720435129,733:     48  85  86
1720435129,733:     38  85  86
1720435129,733:     38  85  86
1720435129,733:     50  85  86
1720435129,733:     65  85  86
1720435129,733:     75  85  86
1720435129,733:     74  85  86
1720435129,733:     66  85  86
1720435129,733:     55  85  86
1720435129,733:     42  85  86
1720435129,733:     24  85  86
1720435129,733:      3  85  86
1720435129,765:    -14  85  86
1720435129,765:    -19  85  86
1720435129,765:    -13  85  86
1720435129,765:      0  85  86
1720435129,765:     19  85  86
1720435129,765:     45  85  86
1720435129,765:     74  85  86
1720435129,765:     89  85  86
1720435129,765:     70  85  86
1720435129,765:      5  85  86
1720435129,765:   -105  85  86
1720435129,765:   -257  85  86
1720435129,765:   -463  85  86
1720435129,765:   -720  85  86
1720435129,765:   -991  85  86
1720435129,797:  -1207  85  86
1720435129,797:  -1303  85  86
1720435129,797:  -1254  85  86
1720435129,797:  -1047  85  86
1720435129,797:   -641  85  86
1720435129,797:     27  85  86
1720435129,797:    985  85  86
1720435129,797:   2161  85  86
1720435129,797:   3399  85  86
1720435129,797:   4547  85  86
1720435129,797:   5511  85  86
1720435129,797:   6248  85  86
1720435129,797:   6718  85  86
1720435129,797:   6867  85  86
1720435129,797:   6671  85  86
1720435129,828:   6173  84  86
1720435129,828:   5470  84  86
1720435129,828:   4668  84  86
1720435129,828:   3846  84  86
1720435129,828:   3065  84  86
1720435129,828:   2377  84  86
1720435129,828:   1810  84  86
1720435129,828:   1358  84  86
1720435129,828:    983  84  86
1720435129,828:    647  84  86
1720435129,828:    330  84  86
1720435129,828:     32  84  86
1720435129,828:   -252  84  86
1720435129,828:   -531  84  86
1720435129,828:   -808  84  86
1720435129,828:  -1064  84  86
1720435129,828:  -1269  84  86
1720435129,828:  -1404  84  86
1720435129,828:  -1475  84  86
1720435129,828:  -1498  84  86
1720435129,828:  -1492  84  86
1720435129,828:  -1467  84  86
1720435129,828:  -1435  84  86
1720435129,860:  -1412  84  86
1720435129,860:  -1412  84  86
1720435129,860:  -1438  84  86
1720435129,860:  -1473  84  86
1720435129,860:  -1497  84  86
1720435129,860:  -1494  84  86
1720435129,860:  -1466  84  86
1720435129,892:  -1419  84  86
1720435129,892:  -1367  84  86
1720435129,892:  -1319  84  86
1720435129,892:  -1282  84  86
1720435129,892:  -1259  84  86
1720435129,892:  -1247  84  86
1720435129,892:  -1241  84  86
1720435129,892:  -1231  84  86
1720435129,892:  -1212  84  86
1720435129,892:  -1182  84  86
1720435129,892:  -1142  84  86
1720435129,892:  -1099  84  86
1720435129,892:  -1059  84  86
1720435129,892:  -1030  84  86
1720435129,892:  -1015  84  86
1720435129,892:  -1011  84  86
1720435129,892:  -1008  84  86
1720435129,892:   -997  84  86
1720435129,892:   -976  84  86
1720435129,892:   -954  84  86
1720435129,892:   -936  84  86
1720435129,892:   -920  84  86
1720435129,892:   -902  84  86
1720435129,923:   -882  84  86
1720435129,923:   -864  84  86
1720435129,923:   -855  84  86
1720435129,923:   -853  84  86
1720435129,923:   -852  84  86
1720435129,923:   -847  84  86
1720435129,923:   -840  84  86
1720435129,954:   -837  84  86
1720435129,954:   -838  84  86
1720435129,954:   -840  84  86
1720435129,954:   -835  84  86
1720435129,954:   -826  84  86
1720435129,954:   -818  84  86
1720435129,954:   -818  84  86
1720435129,954:   -824  84  86
1720435129,954:   -829  84  86
1720435129,954:   -827  84  86
1720435129,954:   -821  84  86
1720435129,954:   -820  84  86
1720435129,954:   -827  84  86
1720435129,954:   -839  84  86
1720435129,954:   -848  84  86
1720435129,954:   -851  84  86
1720435129,954:   -854  84  86
1720435129,954:   -859  84  86
1720435129,954:   -866  84  86
1720435129,954:   -871  84  86
1720435129,954:   -873  84  86
1720435129,954:   -872  84  86
1720435129,954:   -869  84  86
1720435129,986:   -862  84  86
1720435129,986:   -851  84  86
1720435129,986:   -838  84  86
1720435129,986:   -827  84  86
1720435129,986:   -818  84  86
1720435129,986:   -808  84  86
1720435129,986:   -790  84  86
1720435129,986:   -767  84  86
1720435129,986:   -744  84  86
1720435129,986:   -725  84  86
1720435129,986:   -708  84  86
1720435129,986:   -687  84  86
1720435129,986:   -657  84  86
1720435129,986:   -620  84  86
1720435129,986:   -582  84  86
1720435130,017:   -548  84  86
1720435130,017:   -516  84  86
1720435130,017:   -479  84  86
1720435130,017:   -434  84  86
1720435130,017:   -383  84  86
1720435130,017:   -336  84  86
1720435130,017:   -300  84  86
1720435130,017:   -268  84  86
1720435130,017:   -232  84  86
1720435130,017:   -186  84  86
1720435130,017:   -134  84  86
1720435130,017:    -86  84  86
1720435130,017:    -45  84  86
1720435130,017:     -7  84  86
1720435130,017:     37  84  86
1720435130,049:     92  84  86
1720435130,049:    149  84  86
1720435130,049:    198  84  86
1720435130,049:    234  84  86
1720435130,049:    263  84  86
1720435130,049:    293  84  86
