timestamp: ADC HeartRate4sAverage HeartRate30sAverage
1720775574,559:   1350  68  65
1720775574,559:   1054  68  65
1720775574,559:    294  68  65
1720775574,559:     70  68  65
1720775574,559:    666  68  65
1720775574,559:   1286  68  65
1720775574,559:   1116  68  65
1720775574,559:    399  68  65
1720775574,559:    108  68  65
1720775574,559:    622  68  65
1720775574,559:   1217  68  65
1720775574,559:   1051  68  65
1720775574,559:    281  68  65
1720775574,559:   -112  68  65
1720775574,559:    354  68  65
1720775574,591:   1024  68  65
1720775574,591:    997  68  65
1720775574,591:    313  68  65
1720775574,591:    -98  68  65
1720775574,591:    323  68  65
1720775574,591:    997  68  65
1720775574,591:   1002  68  65
1720775574,591:    293  68  65
1720775574,591:   -210  68  65
1720775574,591:    147  68  65
1720775574,591:    875  68  65
1720775574,591:   1012  68  65
1720775574,591:    393  68  65
1720775574,591:   -131  68  65
1720775574,591:    156  68  65
1720775574,622:    855  68  65
1720775574,622:   1014  68  65
1720775574,622:    387  68  65
1720775574,622:   -209  68  65
1720775574,622:     13  68  65
1720775574,622:    750  68  65
1720775574,622:   1030  68  65
1720775574,622:    500  68  65
1720775574,622:   -104  68  65
1720775574,622:     51  68  65
1720775574,622:    754  68  65
1720775574,622:   1051  68  65
1720775574,622:    512  68  65
1720775574,622:   -176  68  65
1720775574,622:   -110  68  65
1720775574,653:    607  68  65
1720775574,653:   1025  68  65
1720775574,653:    608  68  65
1720775574,653:    -60  68  65
1720775574,653:    -56  68  65
1720775574,653:    614  68  65
1720775574,653:   1037  68  65
1720775574,653:    614  68  65
1720775574,653:   -126  68  65
1720775574,653:   -205  68  65
1720775574,653:    478  68  65
1720775574,653:   1027  68  65
1720775574,653:    738  68  65
1720775574,653:     24  68  65
1720775574,653:   -129  68  65
1720775574,685:    491  68  65
1720775574,685:   1045  68  65
1720775574,685:    774  68  65
1720775574,685:      6  68  65
1720775574,685:   -250  68  65
1720775574,685:    333  68  65
1720775574,685:    974  68  65
1720775574,685:    837  68  65
1720775574,685:    126  68  65
1720775574,685:   -177  68  65
1720775574,685:    345  68  65
1720775574,685:    986  68  65
1720775574,685:    872  68  65
1720775574,685:    115  68  65
1720775574,685:   -298  68  65
1720775574,716:    159  68  65
1720775574,716:    860  68  65
1720775574,716:    874  68  65
1720775574,716:    196  68  65
1720775574,716:   -247  68  65
1720775574,716:    146  68  65
1720775574,716:    830  68  65
1720775574,716:    865  68  65
1720775574,716:    163  68  65
1720775574,716:   -359  68  65
1720775574,716:    -13  68  65
1720775574,716:    736  68  65
1720775574,716:    904  68  65
1720775574,716:    289  68  65
1720775574,716:   -256  68  65
1720775574,748:     27  68  65
1720775574,748:    759  68  65
1720775574,748:    951  68  65
1720775574,748:    313  68  65
1720775574,748:   -333  68  65
1720775574,748:   -140  68  65
1720775574,748:    622  68  65
1720775574,748:    944  68  65
1720775574,748:    417  68  65
1720775574,748:   -233  68  65
1720775574,748:   -113  68  65
1720775574,748:    610  68  65
1720775574,748:    960  68  65
1720775574,748:    445  68  65
1720775574,748:   -270  68  65
1720775574,780:   -237  68  65
1720775574,780:    490  68  65
1720775574,780:    949  68  65
1720775574,780:    548  68  65
1720775574,780:   -152  68  65
1720775574,780:   -190  68  65
1720775574,780:    477  68  65
1720775574,780:    934  68  65
1720775574,780:    535  68  65
1720775574,780:   -228  68  65
1720775574,780:   -351  68  65
1720775574,780:    318  68  65
1720775574,780:    888  68  65
1720775574,780:    620  68  65
1720775574,780:   -106  68  65
1720775574,780:   -285  68  65
1720775574,780:    336  68  65
1720775574,780:    926  68  65
1720775574,780:    683  68  65
1720775574,780:   -101  68  65
1720775574,780:   -397  68  65
1720775574,780:    175  68  65
1720775574,780:    847  68  65
1720775574,811:    740  68  65
1720775574,811:     20  68  65
1720775574,811:   -322  68  65
1720775574,811:    185  68  65
1720775574,811:    854  68  65
1720775574,811:    774  68  65
1720775574,811:     15  68  65
1720775574,811:   -429  68  65
1720775574,811:     23  68  65
1720775574,811:    766  68  65
1720775574,811:    831  68  65
1720775574,811:    158  68  65
1720775574,811:   -320  68  65
1720775574,811:     59  68  65
1720775574,811:    785  68  65
1720775574,843:    884  68  65
1720775574,843:    201  68  65
1720775574,843:   -362  68  65
1720775574,843:    -60  68  65
1720775574,843:    698  68  65
1720775574,843:    911  68  65
1720775574,843:    313  68  65
1720775574,843:   -270  68  65
1720775574,843:    -36  68  65
1720775574,843:    698  68  65
1720775574,843:    940  68  65
1720775574,843:    336  68  65
1720775574,843:   -330  68  65
1720775574,843:   -178  68  65
1720775574,843:    585  68  65
1720775574,874:    958  68  65
1720775574,874:    471  68  65
1720775574,874:   -193  68  65
1720775574,874:   -116  68  65
1720775574,874:    597  68  65
1720775574,874:    982  68  65
1720775574,874:    499  68  65
1720775574,874:   -234  68  65
1720775574,874:   -244  68  65
1720775574,874:    473  68  65
1720775574,874:    969  68  65
1720775574,874:    603  68  65
1720775574,874:   -114  68  65
1720775574,874:   -201  68  65
1720775574,874:    452  68  65
1720775574,905:    952  68  65
1720775574,905:    603  68  65
1720775574,905:   -161  68  65
1720775574,905:   -325  68  65
1720775574,905:    325  68  65
1720775574,905:    937  68  65
1720775574,905:    727  68  65
1720775574,905:     10  68  65
1720775574,905:   -218  68  65
1720775574,905:    355  68  65
1720775574,905:    948  68  65
1720775574,905:    740  68  65
1720775574,905:    -33  68  65
1720775574,905:   -357  68  65
1720775574,905:    187  68  65
1720775574,937:    876  68  65
1720775574,937:    817  68  65
1720775574,937:    119  68  65
1720775574,937:   -250  68  65
1720775574,937:    216  68  65
1720775574,937:    877  68  65
1720775574,937:    819  68  65
1720775574,937:     65  68  65
1720775574,937:   -421  68  65
1720775574,937:    -29  68  65
1720775574,937:    687  68  65
1720775574,937:    767  68  65
1720775574,937:    108  68  65
1720775574,937:   -393  68  65
1720775574,937:    -50  68  65
1720775574,937:    675  68  65
1720775574,937:    816  68  65
1720775574,937:    173  68  65
1720775574,937:   -395  68  65
1720775574,969:   -125  68  65
1720775574,969:    628  68  65
1720775574,969:    880  68  65
1720775574,969:    322  68  65
1720775574,969:   -275  68  65
1720775574,969:    -94  68  65
1720775574,969:    610  68  65
1720775574,969:    879  68  65
1720775574,969:    327  68  65
1720775574,969:   -323  68  65
1720775574,969:   -195  68  65
1720775574,969:    552  68  65
1720775574,969:    954  68  65
1720775574,969:    514  68  65
1720775574,969:   -142  68  65
1720775575,001:   -102  68  65
1720775575,001:    581  68  65
1720775575,001:    985  68  65
1720775575,001:    544  68  65
1720775575,001:   -178  68  65
1720775575,001:   -224  68  65
1720775575,001:    461  68  65
1720775575,001:    975  68  65
1720775575,001:    659  68  65
1720775575,001:    -35  68  65
1720775575,001:   -148  68  65
1720775575,001:    472  68  65
1720775575,001:    977  68  65
1720775575,001:    660  68  65
1720775575,001:    -97  68  65
1720775575,032:   -302  68  65
1720775575,032:    302  68  65
1720775575,032:    914  68  65
1720775575,032:    743  68  65
1720775575,032:     52  68  65
1720775575,032:   -201  68  65
1720775575,032:    334  68  65
1720775575,032:    929  68  65
1720775575,032:    772  68  65
1720775575,032:     43  68  65
1720775575,032:   -294  68  65
1720775575,032:    203  68  65
1720775575,032:    880  68  65
1720775575,032:    871  68  65
1720775575,032:    238  68  65
1720775575,063:   -121  68  65
1720775575,063:    300  68  65
1720775575,063:    926  68  65
1720775575,063:    896  68  65
1720775575,063:    204  68  65
1720775575,063:   -254  68  65
1720775575,063:    106  68  65
1720775575,063:    780  68  65
1720775575,063:    861  68  65
1720775575,063:    247  68  65
1720775575,063:   -221  68  65
1720775575,063:    106  68  65
1720775575,063:    791  68  65
1720775575,063:    911  68  65
1720775575,063:    276  68  65
1720775575,094:   -287  68  65
1720775575,094:    -34  68  65
1720775575,094:    689  68  65
1720775575,094:    926  68  65
1720775575,094:    370  68  65
1720775575,094:   -223  68  65
1720775575,094:    -43  68  65
1720775575,094:    664  68  65
1720775575,094:    946  68  65
1720775575,094:    400  68  65
1720775575,094:   -272  68  65
1720775575,094:   -189  68  65
1720775575,094:    520  68  65
1720775575,094:    909  68  65
1720775575,094:    470  68  65
1720775575,125:   -195  68  65
1720775575,125:   -170  68  65
1720775575,125:    524  68  65
1720775575,125:    978  68  65
1720775575,125:    606  68  65
1720775575,125:    -60  68  65
1720775575,125:    -69  68  65
1720775575,125:    644  68  65
1720775575,125:   1150  68  65
1720775575,125:    719  68  65
1720775575,125:   -245  68  65
1720775575,125:   -750  68  65
1720775575,125:   -555  68  65
1720775575,125:   -438  68  65
1720775575,125:  -1076  68  65
1720775575,157:  -2050  68  65
1720775575,157:  -2274  68  65
1720775575,157:  -1382  68  65
1720775575,157:   -129  68  65
1720775575,157:    676  68  65
1720775575,157:   1287  68  65
1720775575,157:   2678  68  65
1720775575,157:   5148  68  65
1720775575,157:   7777  68  65
1720775575,157:   9504  68  65
1720775575,157:  10397  68  65
1720775575,157:  11493  68  65
1720775575,157:  13320  68  65
1720775575,157:  15116  68  65
1720775575,157:  15768  68  65
1720775575,157:  15198  68  65
1720775575,157:  14402  68  65
1720775575,157:  14050  68  65
1720775575,157:  13547  68  65
1720775575,157:  11841  68  65
1720775575,157:   8882  68  65
1720775575,157:   5874  68  65
1720775575,157:   3898  68  65
1720775575,188:   2709  68  66
1720775575,188:   1278  68  66
1720775575,188:   -748  68  66
1720775575,188:  -2527  68  66
1720775575,188:  -3124  68  66
1720775575,188:  -2722  68  66
1720775575,188:  -2337  68  66
1720775575,188:  -2544  68  66
1720775575,188:  -2866  68  66
1720775575,188:  -2637  68  66
1720775575,188:  -2063  68  66
1720775575,188:  -1973  68  66
1720775575,188:  -2667  68  66
1720775575,188:  -3451  68  66
1720775575,188:  -3513  68  66
1720775575,220:  -3026  68  66
1720775575,220:  -2869  68  66
1720775575,220:  -3437  68  66
1720775575,220:  -4054  68  66
1720775575,220:  -3853  68  66
1720775575,220:  -2959  68  66
1720775575,220:  -2341  68  66
1720775575,220:  -2582  68  66
1720775575,220:  -3162  68  66
1720775575,220:  -3193  68  66
1720775575,220:  -2634  68  66
1720775575,220:  -2290  68  66
1720775575,220:  -2680  68  66
1720775575,220:  -3286  68  66
1720775575,220:  -3198  68  66
1720775575,251:  -2367  68  66
1720775575,251:  -1689  68  66
1720775575,251:  -1864  68  66
1720775575,251:  -2499  68  66
1720775575,251:  -2641  68  66
1720775575,251:  -2062  68  66
1720775575,251:  -1529  68  66
1720775575,251:  -1739  68  66
1720775575,251:  -2374  68  66
1720775575,251:  -2491  68  66
1720775575,251:  -1818  68  66
1720775575,251:  -1121  68  66
1720775575,251:  -1202  68  66
1720775575,251:  -1843  68  66
1720775575,251:  -2095  68  66
1720775575,282:  -1560  68  66
1720775575,282:   -914  68  66
1720775575,282:   -985  68  66
1720775575,282:  -1649  68  66
1720775575,282:  -1963  68  66
1720775575,282:  -1444  68  66
1720775575,282:   -714  68  66
1720775575,282:   -661  68  66
1720775575,282:  -1274  68  66
1720775575,282:  -1648  68  66
1720775575,282:  -1214  68  66
1720775575,282:   -509  68  66
1720775575,282:   -441  68  66
1720775575,282:  -1086  68  66
1720775575,282:  -1556  68  66
1720775575,282:  -1187  68  66
1720775575,282:   -432  68  66
1720775575,282:   -236  68  66
1720775575,282:   -798  68  66
1720775575,282:  -1300  68  66
1720775575,282:  -1015  68  66
1720775575,282:   -297  68  66
1720775575,313:    -87  68  66
1720775575,313:   -661  68  66
1720775575,313:  -1244  68  66
1720775575,313:  -1037  68  66
1720775575,313:   -297  68  66
1720775575,313:     27  68  66
1720775575,313:   -448  68  66
1720775575,313:  -1033  68  66
1720775575,344:   -891  68  66
1720775575,344:   -186  68  66
1720775575,344:    155  68  66
1720775575,344:   -326  68  66
1720775575,344:   -990  68  66
1720775575,344:   -940  68  66
1720775575,344:   -234  68  66
1720775575,344:    211  68  66
1720775575,344:   -159  68  66
1720775575,344:   -807  68  66
1720775575,344:   -817  68  66
1720775575,344:   -151  68  66
1720775575,344:    313  68  66
1720775575,344:    -41  68  66
1720775575,344:   -746  68  66
1720775575,375:   -841  68  66
1720775575,375:   -182  68  66
1720775575,375:    387  68  66
1720775575,375:    155  68  66
1720775575,375:   -518  68  66
1720775575,375:   -680  68  66
1720775575,375:    -85  68  66
1720775575,375:    481  68  66
1720775575,375:    266  68  66
1720775575,375:   -453  68  66
1720775575,375:   -700  68  66
1720775575,375:   -128  68  66
1720775575,375:    532  68  66
1720775575,375:    451  68  66
1720775575,375:   -208  68  66
1720775575,406:   -502  68  66
1720775575,406:      4  68  66
1720775575,406:    652  68  66
1720775575,406:    588  68  66
1720775575,406:   -107  68  66
1720775575,406:   -489  68  66
1720775575,406:    -24  68  66
1720775575,406:    704  68  66
1720775575,406:    783  68  66
1720775575,406:    177  68  66
1720775575,406:   -229  68  66
1720775575,406:    174  68  66
1720775575,406:    885  68  66
1720775575,406:    989  68  66
1720775575,406:    364  68  66
1720775575,406:   -122  68  66
1720775575,406:    219  68  66
1720775575,406:    972  68  66
1720775575,406:   1191  68  66
1720775575,406:    645  68  66
1720775575,406:    129  68  66
1720775575,406:    390  68  66
1720775575,437:   1097  68  66
1720775575,437:   1311  68  66
1720775575,437:    725  68  66
1720775575,437:    101  68  66
1720775575,437:    258  68  66
1720775575,437:    970  68  66
1720775575,437:   1286  68  66
1720775575,437:    790  68  66
1720775575,437:    151  68  66
1720775575,437:    225  68  66
1720775575,437:    882  68  66
1720775575,437:   1201  68  66
1720775575,437:    695  68  66
1720775575,437:    -23  68  66
1720775575,437:    -40  68  66
1720775575,468:    622  68  66
1720775575,468:   1059  68  66
1720775575,468:    686  68  66
1720775575,468:      1  68  66
1720775575,468:    -77  68  66
1720775575,468:    531  68  66
1720775575,468:    973  68  66
1720775575,468:    611  68  66
1720775575,468:   -124  68  66
1720775575,468:   -279  68  66
1720775575,468:    326  68  66
1720775575,468:    874  68  66
1720775575,468:    643  68  66
1720775575,468:    -42  68  66
1720775575,468:   -241  68  66
1720775575,499:    319  68  66
1720775575,499:    879  68  66
1720775575,499:    673  68  66
1720775575,499:    -57  68  66
1720775575,499:   -350  68  66
1720775575,499:    169  68  66
1720775575,499:    800  68  66
1720775575,499:    713  68  66
1720775575,499:     39  68  66
1720775575,499:   -297  68  66
1720775575,499:    164  68  66
1720775575,499:    794  68  66
1720775575,499:    735  68  66
1720775575,499:     34  68  66
1720775575,499:   -384  68  66
1720775575,530:     35  68  66
1720775575,530:    739  68  66
1720775575,530:    814  68  66
1720775575,530:    188  68  66
1720775575,530:   -274  68  66
1720775575,530:     62  68  66
1720775575,530:    735  68  66
1720775575,530:    830  68  66
1720775575,530:    186  68  66
1720775575,530:   -361  68  66
1720775575,530:    -93  68  66
1720775575,530:    623  68  66
1720775575,530:    848  68  66
1720775575,530:    309  68  66
1720775575,530:   -239  68  66
1720775575,561:    -31  68  66
1720775575,561:    657  68  66
1720775575,561:    897  68  66
1720775575,561:    342  68  66
1720775575,561:   -289  68  66
1720775575,561:   -161  68  66
1720775575,561:    549  68  66
1720775575,561:    904  68  66
1720775575,561:    446  68  66
1720775575,561:   -194  68  66
1720775575,561:   -137  68  66
1720775575,561:    539  68  66
1720775575,561:    920  68  66
1720775575,561:    471  68  66
1720775575,561:   -242  68  66
1720775575,592:   -283  68  66
1720775575,592:    388  68  66
1720775575,592:    878  68  66
1720775575,592:    554  68  66
1720775575,592:   -128  68  66
1720775575,592:   -227  68  66
1720775575,592:    393  68  66
1720775575,592:    894  68  66
1720775575,592:    589  68  66
1720775575,592:   -141  68  66
1720775575,592:   -329  68  66
1720775575,592:    265  68  66
1720775575,592:    844  68  66
1720775575,592:    649  68  66
1720775575,592:    -44  68  66
1720775575,624:   -284  68  66
1720775575,624:    253  68  66
1720775575,624:    832  68  66
1720775575,624:    655  68  66
1720775575,624:    -77  68  66
1720775575,624:   -400  68  66
1720775575,624:    108  68  66
1720775575,624:    769  68  66
1720775575,624:    717  68  66
1720775575,624:     39  68  66
1720775575,624:   -337  68  66
1720775575,624:     98  68  66
1720775575,624:    749  68  66
1720775575,624:    729  68  66
1720775575,624:     33  68  66
1720775575,624:   -424  68  66
1720775575,624:    -40  68  66
1720775575,624:    674  68  66
1720775575,624:    787  68  66
1720775575,624:    179  68  66
1720775575,624:   -308  68  66
1720775575,624:     -2  68  66
1720775575,624:    678  68  66
1720775575,655:    807  68  66
1720775575,655:    179  68  66
1720775575,655:   -391  68  66
1720775575,655:   -157  68  66
1720775575,655:    557  68  66
1720775575,655:    808  68  66
1720775575,655:    283  68  66
1720775575,655:   -287  68  66
1720775575,655:   -110  68  66
1720775575,655:    577  68  66
1720775575,655:    848  68  66
1720775575,655:    312  68  66
1720775575,655:   -336  68  66
1720775575,655:   -237  68  66
1720775575,655:    474  68  66
1720775575,686:    864  68  66
1720775575,686:    436  68  66
1720775575,686:   -213  68  66
1720775575,686:   -186  68  66
1720775575,686:    483  68  66
1720775575,686:    894  68  66
1720775575,686:    478  68  66
1720775575,718:   -235  68  66
1720775575,718:   -302  68  66
1720775575,718:    354  68  66
1720775575,718:    864  68  66
1720775575,718:    571  68  66
1720775575,718:   -109  68  66
1720775575,718:   -240  68  66
1720775575,718:    350  68  66
1720775575,718:    849  68  66
1720775575,718:    560  68  66
1720775575,718:   -171  68  66
1720775575,718:   -385  68  66
1720775575,718:    189  68  66
1720775575,718:    783  68  66
1720775575,718:    621  68  66
1720775575,749:    -59  68  66
1720775575,749:   -317  68  66
1720775575,749:    207  68  66
1720775575,749:    814  68  66
1720775575,749:    688  68  66
1720775575,749:    -23  68  66
1720775575,749:   -374  68  66
1720775575,749:    101  68  66
1720775575,749:    770  68  66
1720775575,749:    761  68  66
1720775575,749:    105  68  66
1720775575,749:   -299  68  66
1720775575,749:     95  68  66
1720775575,749:    743  68  66
1720775575,749:    756  68  66
1720775575,749:     80  68  66
1720775575,749:   -405  68  66
1720775575,749:    -62  68  66
1720775575,749:    646  68  66
1720775575,749:    794  68  66
1720775575,749:    210  68  66
1720775575,749:   -295  68  66
1720775575,749:    -27  68  66
1720775575,781:    645  68  66
1720775575,781:    806  68  66
1720775575,781:    207  68  66
1720775575,781:   -372  68  66
1720775575,781:   -168  68  66
1720775575,781:    538  68  66
1720775575,781:    812  68  66
1720775575,781:    306  68  66
1720775575,781:   -281  68  66
1720775575,781:   -144  68  66
1720775575,781:    523  68  66
1720775575,781:    807  68  66
1720775575,781:    294  68  66
1720775575,781:   -362  68  66
1720775575,781:   -299  68  66
1720775575,812:    385  68  66
1720775575,812:    782  68  66
1720775575,812:    382  68  66
1720775575,812:   -254  68  66
1720775575,812:   -244  68  66
1720775575,812:    404  68  66
1720775575,812:    818  68  66
1720775575,812:    426  68  66
1720775575,812:   -272  68  66
1720775575,812:   -355  68  66
1720775575,812:    273  68  66
1720775575,812:    770  68  66
1720775575,812:    485  68  66
1720775575,812:   -184  68  66
1720775575,812:   -319  68  66
1720775575,843:    265  68  66
1720775575,843:    775  68  66
1720775575,843:    513  68  66
1720775575,843:   -201  68  66
1720775575,843:   -423  68  66
1720775575,843:    134  68  66
1720775575,843:    727  68  66
1720775575,843:    584  68  66
1720775575,843:    -82  68  66
1720775575,843:   -350  68  66
1720775575,843:    152  68  66
1720775575,843:    750  68  66
1720775575,843:    637  68  66
1720775575,843:    -52  68  66
1720775575,843:   -392  68  66
1720775575,875:     84  68  66
1720775575,875:    763  68  66
1720775575,875:    780  68  66
1720775575,875:    152  68  66
1720775575,875:   -243  68  66
1720775575,875:    140  68  66
1720775575,875:    773  68  66
1720775575,875:    782  68  66
1720775575,875:    108  68  66
1720775575,875:   -381  68  66
1720775575,875:    -52  68  66
1720775575,875:    640  68  66
1720775575,875:    782  68  66
1720775575,875:    202  68  66
1720775575,875:   -299  68  66
1720775575,906:    -28  68  66
1720775575,906:    646  68  66
1720775575,906:    804  68  66
1720775575,906:    194  68  66
1720775575,906:   -406  68  66
1720775575,906:   -213  68  66
1720775575,906:    505  68  66
1720775575,906:    804  68  66
1720775575,906:    306  68  66
1720775575,906:   -298  68  66
1720775575,906:   -181  68  66
1720775575,906:    493  68  66
1720775575,906:    807  68  66
1720775575,906:    308  68  66
1720775575,906:   -374  68  66
1720775575,937:   -347  68  66
1720775575,937:    341  68  66
1720775575,937:    789  68  66
1720775575,937:    446  68  66
1720775575,937:   -165  68  66
1720775575,937:   -142  68  66
1720775575,937:    545  68  66
1720775575,937:   1004  68  66
1720775575,937:    569  68  66
1720775575,937:   -332  68  66
1720775575,937:   -743  68  66
1720775575,937:   -473  68  66
1720775575,937:   -314  68  66
1720775575,937:   -941  68  66
1720775575,937:  -1947  68  66
1720775575,937:  -2289  68  66
1720775575,937:  -1609  68  66
1720775575,937:   -625  68  66
1720775575,937:    -95  68  66
1720775575,937:    240  68  66
1720775575,967:   1371  68  66
1720775575,967:   3657  68  66
1720775575,967:   6257  68  66
1720775575,967:   8115  68  66
1720775575,967:   9210  68  66
1720775575,967:  10465  68  66
1720775575,967:  12403  68  66
1720775575,967:  14342  68  66
1720775575,967:  15218  68  66
1720775575,967:  14891  68  66
1720775575,967:  14283  68  66
1720775575,967:  14085  68  66
1720775575,967:  13800  68  66
1720775575,967:  12409  68  66
1720775575,967:   9742  68  66
1720775575,999:   6823  75  69
1720775575,999:   4690  75  69
1720775575,999:   3251  75  69
1720775575,999:   1671  75  69
1720775575,999:   -367  75  69
1720775575,999:  -2149  75  69
1720775575,999:  -2868  75  69
1720775575,999:  -2688  75  69
1720775575,999:  -2472  75  69
1720775575,999:  -2673  75  69
1720775575,999:  -2852  75  69
1720775575,999:  -2491  75  69
1720775575,999:  -1914  75  69
1720775575,999:  -1926  75  69
1720775575,999:  -2730  75  69
1720775576,030:  -3544  75  69
1720775576,030:  -3569  75  69
1720775576,030:  -3035  75  69
1720775576,030:  -2860  75  69
1720775576,030:  -3418  75  69
1720775576,030:  -4020  75  69
1720775576,030:  -3820  75  69
1720775576,030:  -2980  75  69
1720775576,030:  -2459  75  69
1720775576,030:  -2780  75  69
1720775576,030:  -3366  75  69
1720775576,030:  -3338  75  69
1720775576,030:  -2718  75  69
1720775576,030:  -2357  75  69
1720775576,030:  -2756  75  69
1720775576,062:  -3355  75  69
1720775576,062:  -3246  75  69
1720775576,062:  -2419  75  69
1720775576,062:  -1789  75  69
1720775576,062:  -2021  75  69
1720775576,062:  -2672  75  69
1720775576,062:  -2780  75  69
1720775576,062:  -2160  75  69
1720775576,062:  -1614  75  69
1720775576,062:  -1827  75  69
1720775576,062:  -2440  75  69
1720775576,062:  -2517  75  69
1720775576,062:  -1830  75  69
1720775576,062:  -1178  75  69
1720775576,062:  -1330  75  69
1720775576,062:  -2017  75  69
1720775576,062:  -2261  75  69
1720775576,062:  -1695  75  69
1720775576,062:  -1031  75  69
1720775576,062:  -1094  75  69
1720775576,062:  -1725  75  69
1720775576,062:  -1990  75  69
1720775576,093:  -1451  75  69
1720775576,093:   -763  75  69
1720775576,093:   -792  75  69
1720775576,093:  -1470  75  69
1720775576,093:  -1856  75  69
1720775576,093:  -1402  75  69
1720775576,093:   -671  75  69
1720775576,093:   -574  75  69
1720775576,093:  -1165  75  69
1720775576,093:  -1573  75  69
1720775576,093:  -1186  75  69
1720775576,093:   -484  75  69
1720775576,093:   -378  75  69
1720775576,093:   -999  75  69
1720775576,093:  -1496  75  69
1720775576,125:  -1178  75  69
1720775576,125:   -442  75  69
1720775576,125:   -228  75  69
1720775576,125:   -774  75  69
1720775576,125:  -1297  75  69
1720775576,125:  -1047  75  69
1720775576,125:   -333  75  69
1720775576,125:    -91  75  69
1720775576,157:   -643  75  69
1720775576,157:  -1248  75  69
1720775576,157:  -1079  75  69
1720775576,157:   -342  75  69
1720775576,157:     19  75  69
1720775576,157:   -421  75  69
1720775576,157:  -1018  75  69
1720775576,157:   -916  75  69
1720775576,157:   -231  75  69
1720775576,157:    127  75  69
1720775576,157:   -333  75  69
1720775576,157:  -1006  75  69
1720775576,157:   -985  75  69
1720775576,157:   -284  75  69
1720775576,157:    193  75  69
1720775576,157:   -147  75  69
1720775576,157:   -799  75  69
1720775576,157:   -837  75  69
1720775576,157:   -180  75  69
1720775576,157:    308  75  69
1720775576,157:    -27  75  69
1720775576,157:   -750  75  69
1720775576,188:   -889  75  69
1720775576,188:   -249  75  69
1720775576,188:    344  75  69
1720775576,188:    144  75  69
1720775576,188:   -532  75  69
1720775576,188:   -726  75  69
1720775576,188:   -143  75  69
1720775576,188:    456  75  69
1720775576,188:    283  75  69
1720775576,188:   -435  75  69
1720775576,188:   -726  75  69
1720775576,188:   -187  75  69
1720775576,188:    490  75  69
1720775576,188:    451  75  69
1720775576,188:   -194  75  69
1720775576,220:   -518  75  69
1720775576,220:    -39  75  69
1720775576,220:    628  75  69
1720775576,220:    613  75  69
1720775576,220:    -55  75  69
1720775576,220:   -458  75  69
1720775576,220:    -23  75  69
1720775576,220:    707  75  69
1720775576,220:    816  75  69
1720775576,220:    220  75  69
1720775576,220:   -215  75  69
1720775576,220:    155  75  69
1720775576,220:    870  75  69
1720775576,220:   1001  75  69
1720775576,220:    376  75  69
1720775576,251:   -160  75  69
1720775576,251:    123  75  69
1720775576,251:    862  75  69
1720775576,251:   1101  75  69
1720775576,251:    553  75  69
1720775576,251:    -17  75  69
1720775576,251:    173  75  69
1720775576,251:    854  75  69
1720775576,251:   1087  75  69
1720775576,251:    511  75  69
1720775576,251:   -150  75  69
1720775576,251:    -45  75  69
1720775576,251:    657  75  69
1720775576,251:   1009  75  69
1720775576,251:    540  75  69
1720775576,282:   -120  75  69
1720775576,282:    -86  75  69
1720775576,282:    575  75  69
1720775576,282:    949  75  69
1720775576,282:    493  75  69
1720775576,282:   -231  75  69
1720775576,282:   -291  75  69
1720775576,282:    358  75  69
1720775576,282:    832  75  69
1720775576,282:    502  75  69
1720775576,282:   -181  75  69
1720775576,282:   -285  75  69
1720775576,282:    326  75  69
1720775576,282:    819  75  69
1720775576,282:    513  75  69
1720775576,282:   -213  75  69
1720775576,282:   -400  75  69
1720775576,282:    193  75  69
1720775576,282:    776  75  69
1720775576,282:    588  75  69
1720775576,282:   -102  75  69
1720775576,282:   -350  75  69
1720775576,282:    177  75  69
1720775576,312:    757  75  69
1720775576,312:    591  75  69
1720775576,312:   -134  75  69
1720775576,312:   -461  75  69
1720775576,312:     43  75  69
1720775576,312:    712  75  69
1720775576,312:    679  75  69
1720775576,312:     16  75  69
1720775576,312:   -358  75  69
1720775576,312:     71  75  69
1720775576,312:    717  75  69
1720775576,312:    699  75  69
1720775576,312:      6  75  69
1720775576,312:   -451  75  69
1720775576,312:    -71  75  69
1720775576,344:    635  75  69
1720775576,344:    740  75  69
1720775576,344:    126  75  69
1720775576,344:   -356  75  69
1720775576,344:    -40  75  69
1720775576,344:    649  75  69
1720775576,344:    777  75  69
1720775576,376:    143  75  69
1720775576,376:   -428  75  69
1720775576,376:   -185  75  69
1720775576,376:    540  75  69
1720775576,376:    793  75  69
1720775576,376:    263  75  69
1720775576,376:   -310  75  69
1720775576,376:   -128  75  69
1720775576,376:    568  75  69
1720775576,376:    839  75  69
1720775576,376:    298  75  69
1720775576,376:   -354  75  69
1720775576,376:   -252  75  69
1720775576,376:    463  75  69
1720775576,376:    850  75  69
1720775576,376:    415  75  69
1720775576,376:   -237  75  69
1720775576,376:   -206  75  69
1720775576,376:    465  75  69
1720775576,376:    870  75  69
1720775576,376:    442  75  69
1720775576,376:   -280  75  69
1720775576,376:   -351  75  69
1720775576,408:    303  75  69
1720775576,408:    809  75  69
1720775576,408:    511  75  69
1720775576,408:   -165  75  69
1720775576,408:   -281  75  69
1720775576,408:    326  75  69
1720775576,408:    835  75  69
1720775576,408:    545  75  69
1720775576,408:   -186  75  69
1720775576,408:   -392  75  69
1720775576,408:    192  75  69
1720775576,408:    788  75  69
1720775576,408:    618  75  69
1720775576,408:    -67  75  69
1720775576,408:   -320  75  69
1720775576,438:    215  75  69
1720775576,438:    821  75  69
1720775576,438:    680  75  69
1720775576,438:    -47  75  69
1720775576,438:   -400  75  69
1720775576,438:     80  75  69
1720775576,438:    747  75  69
1720775576,438:    727  75  69
1720775576,438:     67  75  69
1720775576,438:   -322  75  69
1720775576,438:     95  75  69
1720775576,438:    750  75  69
1720775576,438:    750  75  69
1720775576,438:     60  75  69
1720775576,438:   -417  75  69
1720775576,469:    -53  75  69
1720775576,469:    665  75  69
1720775576,469:    800  75  69
1720775576,469:    198  75  69
1720775576,469:   -309  75  69
1720775576,469:    -30  75  69
1720775576,469:    643  75  69
1720775576,469:    787  75  69
1720775576,469:    168  75  69
1720775576,469:   -414  75  69
1720775576,469:   -198  75  69
1720775576,469:    510  75  69
1720775576,469:    768  75  69
1720775576,469:    245  75  69
1720775576,469:   -335  75  69
1720775576,500:   -168  75  69
1720775576,500:    523  75  69
1720775576,500:    808  75  69
1720775576,500:    278  75  69
1720775576,500:   -385  75  69
1720775576,500:   -306  75  69
1720775576,500:    405  75  69
1720775576,500:    813  75  69
1720775576,500:    403  75  69
1720775576,500:   -250  75  69
1720775576,500:   -241  75  69
1720775576,500:    418  75  69
1720775576,500:    836  75  69
1720775576,500:    427  75  69
1720775576,500:   -294  75  69
1720775576,531:   -375  75  69
1720775576,531:    284  75  69
1720775576,531:    811  75  69
1720775576,531:    523  75  69
1720775576,531:   -174  75  69
1720775576,531:   -322  75  69
1720775576,531:    282  75  69
1720775576,531:    822  75  69
1720775576,531:    556  75  69
1720775576,531:   -195  75  69
1720775576,531:   -443  75  69
1720775576,531:    130  75  69
1720775576,531:    762  75  69
1720775576,531:    631  75  69
1720775576,531:    -60  75  69
1720775576,531:   -354  75  69
1720775576,531:    156  75  69
1720775576,531:    782  75  69
1720775576,531:    673  75  69
1720775576,531:    -54  75  69
1720775576,531:   -438  75  69
1720775576,531:     23  75  69
1720775576,562:    710  75  69
1720775576,562:    720  75  69
1720775576,562:     61  75  69
1720775576,562:   -358  75  69
1720775576,562:     41  75  69
1720775576,562:    712  75  69
1720775576,562:    739  75  69
1720775576,562:     47  75  69
1720775576,593:   -462  75  69
1720775576,593:   -120  75  69
1720775576,593:    612  75  69
1720775576,593:    781  75  69
1720775576,593:    191  75  69
1720775576,593:   -332  75  69
1720775576,593:    -61  75  69
1720775576,593:    639  75  69
1720775576,593:    822  75  69
1720775576,593:    216  75  69
1720775576,593:   -391  75  69
1720775576,593:   -197  75  69
1720775576,593:    527  75  69
1720775576,593:    827  75  69
1720775576,593:    325  75  69
1720775576,624:   -278  75  69
1720775576,624:   -147  75  69
1720775576,624:    542  75  69
1720775576,624:    855  75  69
1720775576,624:    342  75  69
1720775576,624:   -341  75  69
1720775576,624:   -295  75  69
1720775576,624:    407  75  69
1720775576,624:    835  75  69
1720775576,624:    437  75  69
1720775576,624:   -232  75  69
1720775576,624:   -252  75  69
1720775576,624:    405  75  69
1720775576,624:    848  75  69
1720775576,624:    460  75  69
1720775576,656:   -277  75  69
1720775576,656:   -396  75  69
1720775576,656:    242  75  69
1720775576,656:    783  75  69
1720775576,656:    523  75  69
1720775576,656:   -164  75  69
1720775576,656:   -323  75  69
1720775576,656:    272  75  69
1720775576,656:    819  75  69
1720775576,656:    567  75  69
1720775576,656:   -183  75  69
1720775576,656:   -446  75  69
1720775576,656:    114  75  69
1720775576,656:    749  75  69
1720775576,656:    627  75  69
1720775576,656:    -66  75  69
1720775576,656:   -376  75  69
1720775576,656:    121  75  69
1720775576,656:    751  75  69
1720775576,656:    657  75  69
1720775576,656:    -65  75  69
1720775576,656:   -462  75  69
1720775576,686:    -16  75  69
1720775576,686:    671  75  69
1720775576,686:    693  75  69
1720775576,686:     39  75  69
1720775576,686:   -390  75  69
1720775576,686:     -1  75  69
1720775576,686:    684  75  69
1720775576,686:    748  75  69
1720775576,686:     87  75  69
1720775576,686:   -420  75  69
1720775576,686:    -91  75  69
1720775576,686:    644  75  69
1720775576,686:    833  75  69
1720775576,686:    259  75  69
1720775576,686:   -280  75  69
1720775576,718:    -42  75  69
1720775576,718:    636  75  69
1720775576,718:    817  75  69
1720775576,718:    209  75  69
1720775576,718:   -417  75  69
1720775576,718:   -246  75  69
1720775576,718:    476  75  69
1720775576,718:    792  75  69
1720775576,718:    296  75  69
1720775576,718:   -326  75  69
1720775576,718:   -219  75  69
1720775576,718:    469  75  69
1720775576,718:    801  75  69
1720775576,718:    296  75  69
1720775576,718:   -408  75  69
1720775576,750:   -388  75  69
1720775576,750:    317  75  69
1720775576,750:    774  75  69
1720775576,750:    395  75  69
1720775576,750:   -288  75  69
1720775576,750:   -334  75  69
1720775576,750:    316  75  69
1720775576,750:    776  75  69
1720775576,750:    400  75  69
1720775576,750:   -350  75  69
1720775576,750:   -490  75  69
1720775576,750:    159  75  69
1720775576,750:    750  75  69
1720775576,750:    543  75  69
1720775576,750:   -117  75  69
1720775576,782:   -260  75  69
1720775576,782:    384  75  69
1720775576,782:   1006  75  69
1720775576,782:    771  75  69
1720775576,782:   -115  75  69
1720775576,782:   -675  75  69
1720775576,782:   -492  75  69
1720775576,782:   -243  75  69
1720775576,782:   -753  75  69
1720775576,782:  -1835  75  69
1720775576,782:  -2440  75  69
1720775576,782:  -1965  75  69
1720775576,782:   -974  75  69
1720775576,782:   -355  75  69
1720775576,782:   -100  75  69
1720775576,813:    752  75  69
1720775576,813:   2820  75  69
1720775576,813:   5491  75  69
1720775576,813:   7629  75  69
1720775576,813:   8912  75  69
1720775576,813:  10121  75  69
1720775576,813:  11966  75  69
1720775576,813:  14034  75  69
1720775576,813:  15277  75  69
1720775576,813:  15316  75  69
1720775576,813:  14892  75  69
1720775576,813:  14809  75  69
1720775576,813:  14796  75  69
1720775576,813:  13841  75  69
1720775576,813:  11512  75  69
1720775576,845:   8590  72  71
1720775576,845:   6179  72  71
1720775576,845:   4449  72  71
1720775576,845:   2700  72  71
1720775576,845:    494  72  71
1720775576,845:  -1628  72  71
1720775576,845:  -2813  72  71
1720775576,845:  -3005  72  71
1720775576,845:  -2946  72  71
1720775576,845:  -3170  72  71
1720775576,845:  -3368  72  71
1720775576,845:  -2998  72  71
1720775576,845:  -2280  72  71
1720775576,845:  -2060  72  71
1720775576,845:  -2732  72  71
1720775576,845:  -3640  72  71
1720775576,845:  -3852  72  71
1720775576,845:  -3364  72  71
1720775576,845:  -3066  72  71
1720775576,845:  -3541  72  71
1720775576,845:  -4271  72  71
1720775576,845:  -4299  72  71
1720775576,845:  -3525  72  71
1720775576,875:  -2843  72  71
1720775576,875:  -2973  72  71
1720775576,875:  -3549  72  71
1720775576,875:  -3636  72  71
1720775576,875:  -3033  72  71
1720775576,875:  -2529  72  71
1720775576,875:  -2810  72  71
1720775576,875:  -3498  72  71
1720775576,875:  -3605  72  71
1720775576,875:  -2857  72  71
1720775576,875:  -2075  72  71
1720775576,875:  -2110  72  71
1720775576,875:  -2757  72  71
1720775576,875:  -3028  72  71
1720775576,875:  -2496  72  71
1720775576,906:  -1838  72  71
1720775576,906:  -1891  72  71
1720775576,906:  -2523  72  71
1720775576,906:  -2788  72  71
1720775576,906:  -2210  72  71
1720775576,906:  -1445  72  71
1720775576,906:  -1400  72  71
1720775576,906:  -2055  72  71
1720775576,906:  -2458  72  71
1720775576,906:  -2012  72  71
1720775576,906:  -1258  72  71
1720775576,906:  -1132  72  71
1720775576,906:  -1721  72  71
1720775576,906:  -2141  72  71
1720775576,906:  -1735  72  71
1720775576,937:   -970  72  71
1720775576,937:   -804  72  71
1720775576,937:  -1417  72  71
1720775576,937:  -1948  72  71
1720775576,937:  -1647  72  71
1720775576,937:   -878  72  71
1720775576,937:   -612  72  71
1720775576,937:  -1137  72  71
1720775576,937:  -1678  72  71
1720775576,937:  -1443  72  71
1720775576,937:   -708  72  71
1720775576,937:   -430  72  71
1720775576,937:   -974  72  71
1720775576,937:  -1601  72  71
1720775576,937:  -1444  72  71
1720775576,968:   -680  72  71
1720775576,968:   -274  72  71
1720775576,968:   -705  72  71
1720775576,968:  -1329  72  71
1720775576,968:  -1243  72  71
1720775576,968:   -520  72  71
1720775576,968:    -98  72  71
1720775576,968:   -531  72  71
1720775576,968:  -1244  72  71
1720775576,968:  -1274  72  71
1720775576,968:   -577  72  71
1720775576,968:    -60  72  71
1720775577,000:   -374  72  71
1720775577,000:  -1053  72  71
1720775577,000:  -1137  72  71
1720775577,000:   -481  72  71
1720775577,000:     55  72  71
1720775577,000:   -238  72  71
1720775577,000:   -974  72  71
1720775577,000:  -1159  72  71
1720775577,000:   -539  72  71
1720775577,000:     80  72  71
1720775577,000:    -92  72  71
1720775577,000:   -782  72  71
1720775577,000:  -1021  72  71
1720775577,000:   -466  72  71
1720775577,000:    148  72  71
1720775577,032:      3  72  71
1720775577,032:   -716  72  71
1720775577,032:  -1031  72  71
1720775577,032:   -503  72  71
1720775577,032:    193  72  71
1720775577,032:    175  72  71
1720775577,032:   -478  72  71
1720775577,032:   -834  72  71
1720775577,032:   -370  72  71
1720775577,032:    313  72  71
1720775577,032:    315  72  71
1720775577,032:   -370  72  71
1720775577,032:   -815  72  71
1720775577,032:   -406  72  71
1720775577,032:    335  72  71
1720775577,032:    464  72  71
1720775577,032:   -139  72  71
1720775577,032:   -608  72  71
1720775577,032:   -260  72  71
1720775577,032:    465  72  71
1720775577,032:    617  72  71
1720775577,032:     -9  72  71
1720775577,064:   -562  72  71
1720775577,064:   -271  72  71
1720775577,064:    517  72  71
1720775577,064:    819  72  71
1720775577,064:    311  72  71
1720775577,064:   -243  72  71
1720775577,064:    -22  72  71
1720775577,064:    729  72  71
1720775577,064:   1042  72  71
1720775577,064:    516  72  71
1720775577,064:   -130  72  71
1720775577,064:     -7  72  71
1720775577,064:    744  72  71
1720775577,064:   1160  72  71
1720775577,064:    734  72  71
1720775577,095:     86  72  71
1720775577,095:    131  72  71
1720775577,095:    821  72  71
1720775577,095:   1230  72  71
1720775577,095:    786  72  71
1720775577,095:     51  72  71
1720775577,095:    -11  72  71
1720775577,095:    661  72  71
1720775577,095:   1160  72  71
1720775577,095:    824  72  71
1720775577,095:    104  72  71
1720775577,095:    -29  72  71
1720775577,095:    582  72  71
1720775577,095:   1083  72  71
1720775577,095:    754  72  71
1720775577,127:    -23  72  71
1720775577,127:   -244  72  71
1720775577,127:    360  72  71
1720775577,127:    973  72  71
1720775577,127:    787  72  71
1720775577,127:     67  72  71
1720775577,127:   -199  72  71
1720775577,127:    350  72  71
1720775577,127:    967  72  71
1720775577,127:    801  72  71
1720775577,127:     32  72  71
1720775577,127:   -338  72  71
1720775577,127:    166  72  71
1720775577,127:    861  72  71
1720775577,127:    834  72  71
1720775577,158:    140  72  71
1720775577,158:   -268  72  71
1720775577,158:    162  72  71
1720775577,158:    835  72  71
1720775577,158:    826  72  71
1720775577,158:    110  72  71
1720775577,158:   -372  72  71
1720775577,158:     20  72  71
1720775577,158:    762  72  71
1720775577,158:    886  72  71
1720775577,158:    254  72  71
1720775577,158:   -253  72  71
1720775577,158:     75  72  71
1720775577,158:    801  72  71
1720775577,158:    948  72  71
1720775577,158:    289  72  71
1720775577,158:   -321  72  71
1720775577,158:    -81  72  71
1720775577,158:    679  72  71
1720775577,158:    955  72  71
1720775577,158:    402  72  71
1720775577,158:   -218  72  71
1720775577,158:    -51  72  71
1720775577,191:    674  72  71
1720775577,191:    975  72  71
1720775577,191:    419  72  71
1720775577,191:   -282  72  71
1720775577,191:   -206  72  71
1720775577,191:    535  72  71
1720775577,191:    968  72  71
1720775577,221:    547  72  71
1720775577,221:   -124  72  71
1720775577,221:   -104  72  71
1720775577,221:    597  72  71
1720775577,221:   1046  72  71
1720775577,221:    634  72  71
1720775577,221:   -109  72  71
1720775577,221:   -192  72  71
1720775577,221:    487  72  71
1720775577,221:   1030  72  71
1720775577,221:    732  72  71
1720775577,221:     12  72  71
1720775577,221:   -143  72  71
1720775577,221:    472  72  71
1720775577,221:   1018  72  71
1720775577,253:    740  72  71
1720775577,253:    -27  72  71
1720775577,253:   -271  72  71
1720775577,253:    324  72  71
1720775577,253:    971  72  71
1720775577,253:    834  72  71
1720775577,253:    130  72  71
1720775577,253:   -158  72  71
1720775577,253:    377  72  71
1720775577,253:   1018  72  71
1720775577,253:    892  72  71
1720775577,253:    128  72  71
1720775577,253:   -283  72  71
1720775577,253:    182  72  71
1720775577,253:    884  72  71
1720775577,253:    894  72  71
1720775577,253:    210  72  71
1720775577,253:   -240  72  71
1720775577,253:    144  72  71
1720775577,253:    816  72  71
1720775577,253:    845  72  71
1720775577,253:    144  72  71
1720775577,253:   -381  72  71
1720775577,284:    -51  72  71
1720775577,284:    669  72  71
1720775577,284:    815  72  71
1720775577,284:    195  72  71
1720775577,284:   -350  72  71
1720775577,284:    -80  72  71
1720775577,284:    624  72  71
1720775577,284:    792  72  71
1720775577,284:    146  72  71
1720775577,284:   -497  72  71
1720775577,284:   -309  72  71
1720775577,284:    435  72  71
1720775577,284:    744  72  71
1720775577,284:    217  72  71
1720775577,284:   -425  72  71
1720775577,316:   -309  72  71
1720775577,316:    399  72  71
1720775577,316:    735  72  71
1720775577,316:    220  72  71
1720775577,316:   -484  72  71
1720775577,316:   -446  72  71
1720775577,316:    274  72  71
1720775577,316:    723  72  71
1720775577,316:    318  72  71
1720775577,316:   -382  72  71
1720775577,316:   -422  72  71
1720775577,316:    240  72  71
1720775577,316:    691  72  71
1720775577,316:    288  72  71
1720775577,316:   -480  72  71
1720775577,347:   -613  72  71
1720775577,347:     48  72  71
1720775577,347:    623  72  71
1720775577,347:    368  72  71
1720775577,347:   -346  72  71
1720775577,347:   -527  72  71
1720775577,347:     81  72  71
1720775577,347:    662  72  71
1720775577,347:    428  72  71
1720775577,347:   -336  72  71
1720775577,347:   -616  72  71
1720775577,347:    -45  72  71
1720775577,347:    618  72  71
1720775577,347:    509  72  71
1720775577,347:   -200  72  71
1720775577,379:   -530  72  71
1720775577,379:    -25  72  71
1720775577,379:    631  72  71
1720775577,379:    543  72  71
1720775577,379:   -205  72  71
1720775577,379:   -632  72  71
1720775577,379:   -179  72  71
1720775577,379:    544  72  71
1720775577,379:    591  72  71
1720775577,379:    -74  72  71
1720775577,379:   -528  72  71
1720775577,379:   -138  72  71
1720775577,379:    569  72  71
1720775577,379:    640  72  71
1720775577,379:    -48  72  71
1720775577,411:   -587  72  71
1720775577,411:   -258  72  71
1720775577,411:    506  72  71
1720775577,411:    714  72  71
1720775577,411:    124  72  71
1720775577,411:   -436  72  71
1720775577,411:   -185  72  71
1720775577,411:    538  72  71
1720775577,411:    758  72  71
1720775577,411:    150  72  71
1720775577,411:   -498  72  71
1720775577,411:   -334  72  71
1720775577,411:    407  72  71
1720775577,411:    739  72  71
1720775577,411:    233  72  71
1720775577,443:   -413  72  71
1720775577,443:   -310  72  71
1720775577,443:    400  72  71
1720775577,443:    755  72  71
1720775577,443:    251  72  71
1720775577,443:   -465  72  71
1720775577,443:   -442  72  71
1720775577,443:    285  72  71
1720775577,443:    761  72  71
1720775577,443:    379  72  71
1720775577,443:   -318  72  71
1720775577,443:   -360  72  71
1720775577,443:    319  72  71
1720775577,443:    805  72  71
1720775577,443:    427  72  71
1720775577,474:   -343  72  71
1720775577,474:   -488  72  71
1720775577,474:    176  72  71
1720775577,474:    772  72  71
1720775577,474:    530  72  71
1720775577,474:   -197  72  71
1720775577,474:   -404  72  71
1720775577,474:    195  72  71
1720775577,474:    789  72  71
1720775577,474:    562  72  71
1720775577,474:   -217  72  71
1720775577,474:   -524  72  71
1720775577,474:     37  72  71
1720775577,474:    718  72  71
1720775577,474:    632  72  71
1720775577,474:    -80  72  71
1720775577,474:   -430  72  71
1720775577,474:     68  72  71
1720775577,474:    744  72  71
1720775577,474:    682  72  71
1720775577,474:    -70  72  71
1720775577,474:   -528  72  71
1720775577,505:    -94  72  71
1720775577,505:    648  72  71
1720775577,505:    731  72  71
1720775577,505:     79  72  71
1720775577,505:   -396  72  71
1720775577,505:    -27  72  71
1720775577,505:    693  72  71
1720775577,505:    792  72  71
1720775577,536:    104  72  71
1720775577,536:   -477  72  71
1720775577,536:   -197  72  71
1720775577,536:    553  72  71
1720775577,536:    773  72  71
1720775577,536:    182  72  71
1720775577,536:   -414  72  71
1720775577,536:   -201  72  71
1720775577,536:    532  72  71
1720775577,536:    801  72  71
1720775577,536:    234  72  71
1720775577,536:   -418  72  71
1720775577,536:   -280  72  71
1720775577,536:    462  72  71
1720775577,536:    831  72  71
1720775577,536:    357  72  71
1720775577,536:   -301  72  71
1720775577,536:   -237  72  71
1720775577,536:    455  72  71
1720775577,536:    835  72  71
1720775577,536:    369  72  71
1720775577,536:   -334  72  71
1720775577,567:   -321  72  71
1720775577,567:    409  72  71
1720775577,567:    916  72  71
1720775577,567:    564  72  71
1720775577,567:   -141  72  71
1720775577,567:   -230  72  71
1720775577,567:    407  72  71
1720775577,567:    888  72  71
1720775577,567:    527  72  71
1720775577,567:   -242  72  71
1720775577,567:   -417  72  71
1720775577,567:    211  72  71
1720775577,567:    800  72  71
1720775577,567:    578  72  71
1720775577,567:   -135  72  71
1720775577,599:   -357  72  71
1720775577,599:    214  72  71
1720775577,599:    792  72  71
1720775577,599:    572  72  71
1720775577,599:   -198  72  71
1720775577,599:   -511  72  71
1720775577,599:     40  72  71
1720775577,599:    726  72  71
1720775577,599:    657  72  71
1720775577,599:    -47  72  71
1720775577,599:   -418  72  71
1720775577,599:     45  72  71
1720775577,599:    697  72  71
1720775577,599:    635  72  71
1720775577,599:   -112  72  71
1720775577,630:   -578  72  71
1720775577,630:   -158  72  71
1720775577,630:    592  72  71
1720775577,630:    716  72  71
1720775577,630:    112  72  71
1720775577,630:   -330  72  71
1720775577,630:     65  72  71
1720775577,630:    824  72  71
1720775577,630:    946  72  71
1720775577,630:    186  72  71
1720775577,630:   -626  72  71
1720775577,630:   -708  72  71
1720775577,630:   -372  72  71
1720775577,630:   -553  72  71
1720775577,630:  -1514  72  71
1720775577,661:  -2402  72  71
1720775577,661:  -2285  72  71
1720775577,661:  -1329  72  71
1720775577,661:   -471  72  71
1720775577,661:   -131  72  71
1720775577,661:    414  72  71
1720775577,661:   2087  72  71
1720775577,661:   4718  72  71
1720775577,661:   7175  72  71
1720775577,661:   8703  72  71
1720775577,661:   9771  72  71
1720775577,661:  11325  72  71
1720775577,661:  13409  72  71
1720775577,661:  15049  72  71
1720775577,661:  15463  72  71
1720775577,693:  15029  70  71
1720775577,693:  14728  70  71
1720775577,693:  14754  70  71
1720775577,693:  14226  70  71
1720775577,693:  12336  70  71
1720775577,693:   9447  70  71
1720775577,693:   6741  70  71
1720775577,693:   4831  70  71
1720775577,693:   3219  70  71
1720775577,693:   1195  70  71
1720775577,693:  -1075  70  71
1720775577,693:  -2675  70  71
1720775577,693:  -3143  70  71
1720775577,693:  -3018  70  71
1720775577,693:  -3080  70  71
1720775577,725:  -3364  70  71
1720775577,725:  -3273  70  71
1720775577,725:  -2638  70  71
1720775577,725:  -2145  70  71
1720775577,725:  -2485  70  71
1720775577,725:  -3409  70  71
1720775577,725:  -3944  70  71
1720775577,725:  -3643  70  71
1720775577,725:  -3150  70  71
1720775577,725:  -3317  70  71
1720775577,725:  -4059  70  71
1720775577,725:  -4437  70  71
1720775577,725:  -3911  70  71
1720775577,725:  -3076  70  71
1720775577,725:  -2873  70  71
1720775577,725:  -3387  70  71
1720775577,725:  -3761  70  71
1720775577,725:  -3388  70  71
1720775577,725:  -2739  70  71
1720775577,725:  -2687  70  71
1720775577,725:  -3306  70  71
1720775577,725:  -3724  70  71
1720775577,725:  -3268  70  71
1720775577,757:  -2391  70  71
1720775577,757:  -2075  70  71
1720775577,757:  -2574  70  71
1720775577,757:  -3084  70  71
1720775577,757:  -2833  70  71
1720775577,757:  -2108  70  71
1720775577,757:  -1830  70  71
1720775577,757:  -2308  70  71
1720775577,757:  -2810  70  71
1720775577,757:  -2542  70  71
1720775577,757:  -1749  70  71
1720775577,757:  -1380  70  71
1720775577,757:  -1847  70  71
1720775577,757:  -2465  70  71
1720775577,757:  -2353  70  71
1720775577,788:  -1622  70  71
1720775577,788:  -1192  70  71
1720775577,788:  -1567  70  71
1720775577,788:  -2154  70  71
1720775577,788:  -2061  70  71
1720775577,788:  -1321  70  71
1720775577,788:   -844  70  71
1720775577,788:  -1205  70  71
1720775577,788:  -1871  70  71
1720775577,788:  -1890  70  71
1720775577,788:  -1182  70  71
1720775577,788:   -626  70  71
1720775577,788:   -891  70  71
1720775577,788:  -1550  70  71
1720775577,788:  -1648  70  71
1720775577,820:  -1005  70  71
1720775577,820:   -447  70  71
1720775577,820:   -695  70  71
1720775577,820:  -1405  70  71
1720775577,820:  -1601  70  71
1720775577,820:   -997  70  71
1720775577,820:   -365  70  71
1720775577,820:   -497  70  71
1720775577,820:  -1163  70  71
1720775577,820:  -1413  70  71
1720775577,820:   -872  70  71
1720775577,820:   -244  70  71
1720775577,820:   -357  70  71
1720775577,820:  -1065  70  71
1720775577,820:  -1412  70  71
1720775577,850:   -922  70  71
1720775577,850:   -228  70  71
1720775577,850:   -213  70  71
1720775577,850:   -848  70  71
1720775577,850:  -1225  70  71
1720775577,850:   -793  70  71
1720775577,850:   -111  70  71
1720775577,850:    -83  70  71
1720775577,850:   -760  70  71
1720775577,850:  -1238  70  71
1720775577,850:   -869  70  71
1720775577,850:   -126  70  71
1720775577,850:     35  70  71
1720775577,850:   -557  70  71
1720775577,850:  -1063  70  71
1720775577,880:   -763  70  71
1720775577,880:    -40  70  71
1720775577,880:    147  70  71
1720775577,880:   -463  70  71
1720775577,880:  -1061  70  71
1720775577,880:   -843  70  71
1720775577,880:    -93  70  71
1720775577,880:    218  70  71
1720775577,880:   -284  70  71
1720775577,880:   -877  70  71
1720775577,880:   -708  70  71
1720775577,880:     35  70  71
1720775577,880:    393  70  71
1720775577,880:    -95  70  71
1720775577,880:   -764  70  71
1720775577,912:   -699  70  71
1720775577,912:     31  70  71
1720775577,912:    487  70  71
1720775577,912:    112  70  71
1720775577,912:   -536  70  71
1720775577,912:   -524  70  71
1720775577,912:    168  70  71
1720775577,912:    640  70  71
1720775577,912:    271  70  71
1720775577,912:   -443  70  71
1720775577,912:   -517  70  71
1720775577,912:    181  70  71
1720775577,912:    776  70  71
1720775577,912:    548  70  71
1720775577,912:   -120  70  71
1720775577,944:   -249  70  71
1720775577,944:    399  70  71
1720775577,944:   1005  70  71
1720775577,944:    800  70  71
1720775577,944:     79  70  71
1720775577,944:   -158  70  71
1720775577,944:    432  70  71
1720775577,944:   1092  70  71
1720775577,944:    988  70  71
1720775577,944:    309  70  71
1720775577,944:     25  70  71
1720775577,944:    557  70  71
1720775577,944:   1209  70  71
1720775577,944:   1107  70  71
1720775577,944:    364  70  71
1720775577,944:    -41  70  71
1720775577,944:    419  70  71
1720775577,944:   1114  70  71
1720775577,944:   1113  70  71
1720775577,944:    420  70  71
1720775577,976:    -28  70  71
1720775577,976:    371  70  71
1720775577,976:   1057  70  71
1720775577,976:   1077  70  71
1720775577,976:    342  70  71
1720775577,976:   -211  70  71
1720775577,976:    122  70  71
1720775577,976:    871  70  71
1720775577,976:   1029  70  71
1720775577,976:    386  70  71
1720775577,976:   -190  70  71
1720775577,976:     80  70  71
1720775577,976:    819  70  71
1720775577,976:   1021  70  71
1720775577,976:    374  70  71
1720775578,008:   -292  70  71
1720775578,008:   -111  70  71
1720775578,008:    658  70  71
1720775578,008:    995  70  71
1720775578,008:    472  70  71
1720775578,008:   -184  70  71
1720775578,008:    -65  70  71
1720775578,008:    667  70  71
1720775578,008:   1021  70  71
1720775578,008:    490  70  71
1720775578,008:   -251  70  71
1720775578,008:   -226  70  71
1720775578,008:    521  70  71
1720775578,008:   1004  70  71
1720775578,008:    607  70  71
1720775578,038:   -108  70  71
1720775578,038:   -145  70  71
1720775578,038:    558  70  71
1720775578,038:   1056  70  71
1720775578,038:    663  70  71
1720775578,038:   -135  70  71
1720775578,038:   -296  70  71
1720775578,038:    363  70  71
1720775578,038:    944  70  71
1720775578,038:    672  70  71
1720775578,038:    -75  70  71
1720775578,038:   -268  70  71
1720775578,038:    363  70  71
1720775578,038:    965  70  71
1720775578,038:    711  70  71
1720775578,038:    -98  70  71
1720775578,038:   -396  70  71
1720775578,038:    204  70  71
1720775578,038:    903  70  71
1720775578,038:    787  70  71
1720775578,038:     38  70  71
1720775578,038:   -307  70  71
1720775578,068:    231  70  71
1720775578,068:    926  70  71
1720775578,068:    831  70  71
1720775578,068:     35  70  71
1720775578,068:   -418  70  71
1720775578,068:     59  70  71
1720775578,068:    815  70  71
1720775578,068:    845  70  71
1720775578,099:    123  70  71
1720775578,099:   -359  70  71
1720775578,099:     70  70  71
1720775578,099:    835  70  71
1720775578,099:    903  70  71
1720775578,099:    145  70  71
1720775578,099:   -456  70  71
1720775578,099:   -117  70  71
1720775578,099:    695  70  71
1720775578,099:    904  70  71
1720775578,099:    248  70  71
1720775578,099:   -371  70  71
1720775578,099:    -99  70  71
1720775578,099:    698  70  71
1720775578,099:    944  70  71
1720775578,130:    276  70  71
1720775578,130:   -442  70  71
1720775578,130:   -267  70  71
1720775578,130:    554  70  71
1720775578,130:    930  70  71
1720775578,130:    377  70  71
1720775578,130:   -338  70  71
1720775578,130:   -223  70  71
1720775578,130:    574  70  71
1720775578,130:    979  70  71
1720775578,130:    413  70  71
1720775578,130:   -415  70  71
1720775578,130:   -428  70  71
1720775578,130:    363  70  71
1720775578,130:    899  70  71
1720775578,161:    480  70  71
1720775578,161:   -307  70  71
1720775578,161:   -373  70  71
1720775578,161:    385  70  71
1720775578,161:    949  70  71
1720775578,161:    546  70  71
1720775578,161:   -321  70  71
1720775578,161:   -513  70  71
1720775578,161:    207  70  71
1720775578,161:    875  70  71
1720775578,161:    619  70  71
1720775578,161:   -190  70  71
1720775578,161:   -429  70  71
1720775578,161:    242  70  71
1720775578,161:    924  70  71
1720775578,193:    691  70  71
1720775578,193:   -182  70  71
1720775578,193:   -547  70  71
1720775578,193:     64  70  71
1720775578,193:    827  70  71
1720775578,193:    735  70  71
1720775578,193:    -71  70  71
1720775578,193:   -481  70  71
1720775578,193:     69  70  71
1720775578,193:    838  70  71
1720775578,193:    780  70  71
1720775578,193:    -69  70  71
1720775578,193:   -601  70  71
1720775578,193:   -128  70  71
1720775578,193:    705  70  71
1720775578,193:    800  70  71
1720775578,193:     59  70  71
1720775578,193:   -489  70  71
1720775578,193:    -80  70  71
1720775578,193:    734  70  71
1720775578,193:    848  70  71
1720775578,193:     69  70  71
1720775578,223:   -591  70  71
1720775578,223:   -267  70  71
1720775578,223:    595  70  71
1720775578,223:    860  70  71
1720775578,223:    202  70  71
1720775578,223:   -458  70  71
1720775578,223:   -197  70  71
1720775578,223:    640  70  71
1720775578,223:    927  70  71
1720775578,223:    245  70  71
1720775578,223:   -526  70  71
1720775578,223:   -378  70  71
1720775578,223:    466  70  71
1720775578,223:    872  70  71
1720775578,223:    304  70  71
1720775578,255:   -461  70  71
1720775578,255:   -373  70  71
1720775578,255:    452  70  71
1720775578,255:    904  70  71
1720775578,255:    349  70  71
1720775578,255:   -504  70  71
1720775578,255:   -529  70  71
1720775578,255:    294  70  71
1720775578,255:    876  70  71
1720775578,255:    467  70  71
1720775578,255:   -357  70  71
1720775578,255:   -458  70  71
1720775578,255:    303  70  71
1720775578,255:    892  70  71
1720775578,255:    492  70  71
1720775578,286:   -406  70  71
1720775578,286:   -619  70  71
1720775578,286:    119  70  71
1720775578,286:    821  70  71
1720775578,286:    569  70  71
1720775578,286:   -272  70  71
1720775578,286:   -534  70  71
1720775578,286:    154  70  71
1720775578,286:    869  70  71
1720775578,286:    632  70  71
1720775578,286:   -287  70  71
1720775578,286:   -684  70  71
1720775578,286:    -51  70  71
1720775578,286:    762  70  71
1720775578,286:    686  70  71
1720775578,317:   -151  70  71
1720775578,317:   -592  70  71
1720775578,317:    -24  70  71
1720775578,317:    790  70  71
1720775578,317:    747  70  71
1720775578,317:   -139  70  71
1720775578,317:   -708  70  71
1720775578,317:   -222  70  71
1720775578,317:    662  70  71
1720775578,317:    782  70  71
1720775578,317:     10  70  71
1720775578,317:   -578  70  71
1720775578,317:   -162  70  71
1720775578,317:    700  70  71
1720775578,317:    843  70  71
1720775578,348:     34  70  71
1720775578,348:   -675  70  71
1720775578,348:   -360  70  71
1720775578,348:    536  70  71
1720775578,348:    821  70  71
1720775578,348:    133  70  71
1720775578,348:   -570  70  71
1720775578,348:   -303  70  71
1720775578,348:    588  70  71
1720775578,348:    910  70  71
1720775578,348:    201  70  71
1720775578,348:   -623  70  71
1720775578,348:   -477  70  71
1720775578,348:    429  70  71
1720775578,348:    892  70  71
1720775578,380:    313  70  71
1720775578,380:   -504  70  71
1720775578,380:   -427  70  71
1720775578,380:    455  70  71
1720775578,380:    968  70  71
1720775578,380:    412  70  71
1720775578,380:   -488  70  71
1720775578,380:   -526  70  71
1720775578,380:    350  70  71
1720775578,380:    991  70  71
1720775578,380:    576  70  71
1720775578,380:   -300  70  71
1720775578,380:   -416  70  71
1720775578,380:    400  70  71
1720775578,380:   1048  70  71
1720775578,380:    626  70  71
1720775578,380:   -362  70  71
1720775578,380:   -631  70  71
1720775578,380:    145  70  71
1720775578,380:    920  70  71
1720775578,380:    675  70  71
1720775578,380:   -238  70  71
1720775578,380:   -563  70  71
1720775578,412:    151  70  71
1720775578,412:    939  70  71
1720775578,412:    724  70  71
1720775578,412:   -257  70  71
1720775578,412:   -721  70  71
1720775578,412:    -73  70  71
1720775578,412:    814  70  71
1720775578,412:    778  70  71
1720775578,412:   -103  70  71
1720775578,412:   -612  70  71
1720775578,412:    -47  70  71
1720775578,412:    824  70  71
1720775578,412:    816  70  71
1720775578,412:   -109  70  71
1720775578,412:   -751  70  71
1720775578,442:   -284  70  71
1720775578,442:    647  70  71
1720775578,442:    817  70  71
1720775578,442:     44  70  71
1720775578,442:   -562  70  71
1720775578,442:    -96  70  71
1720775578,442:    891  70  71
1720775578,442:   1135  70  71
1720775578,442:    285  70  71
1720775578,442:   -628  70  71
1720775578,442:   -595  70  71
1720775578,442:      8  70  71
1720775578,442:    -42  70  71
1720775578,442:  -1163  70  71
1720775578,442:  -2339  70  71
1720775578,474:  -2382  70  71
1720775578,474:  -1442  70  71
1720775578,474:   -682  70  71
1720775578,474:   -664  70  71
1720775578,474:   -523  70  71
1720775578,474:    923  70  71
1720775578,474:   3565  70  71
1720775578,474:   6096  70  71
1720775578,474:   7611  70  71
1720775578,474:   8642  70  71
1720775578,474:  10308  70  71
1720775578,474:  12664  70  71
1720775578,474:  14558  70  71
1720775578,474:  15080  70  71
1720775578,474:  14704  70  71
1720775578,505:  14615  74  73
1720775578,505:  15046  74  73
1720775578,505:  14948  74  73
1720775578,505:  13343  74  73
1720775578,505:  10605  74  73
1720775578,505:   8028  74  73
1720775578,505:   6228  74  73
1720775578,505:   4575  74  73
1720775578,505:   2308  74  73
1720775578,505:   -265  74  73
1720775578,505:  -2041  74  73
1720775578,505:  -2581  74  73
1720775578,505:  -2636  74  73
1720775578,505:  -3076  74  73
1720775578,505:  -3727  74  73
1720775578,536:  -3680  74  73
1720775578,536:  -2736  74  73
1720775578,536:  -1911  74  73
1720775578,536:  -2219  74  73
1720775578,536:  -3365  74  73
1720775578,536:  -4034  74  73
1720775578,536:  -3593  74  73
1720775578,536:  -2876  74  73
1720775578,536:  -3040  74  73
1720775578,536:  -4023  74  73
1720775578,536:  -4598  74  73
1720775578,536:  -4009  74  73
1720775578,536:  -2989  74  73
1720775578,536:  -2771  74  73
1720775578,536:  -3488  74  73
1720775578,567:  -4002  74  73
1720775578,567:  -3483  74  73
1720775578,567:  -2548  74  73
1720775578,567:  -2412  74  73
1720775578,567:  -3247  74  73
1720775578,567:  -3904  74  73
1720775578,567:  -3416  74  73
1720775578,567:  -2309  74  73
1720775578,567:  -1883  74  73
1720775578,567:  -2531  74  73
1720775578,567:  -3224  74  73
1720775578,567:  -2910  74  73
1720775578,567:  -1939  74  73
1720775578,567:  -1552  74  73
1720775578,567:  -2210  74  73
1720775578,598:  -2953  74  73
1720775578,598:  -2672  74  73
1720775578,598:  -1634  74  73
1720775578,598:  -1111  74  73
1720775578,598:  -1712  74  73
1720775578,598:  -2567  74  73
1720775578,598:  -2474  74  73
1720775578,598:  -1521  74  73
1720775578,598:   -926  74  73
1720775578,598:  -1408  74  73
1720775578,598:  -2225  74  73
1720775578,598:  -2166  74  73
1720775578,598:  -1219  74  73
1720775578,598:   -577  74  73
1720775578,598:  -1047  74  73
1720775578,629:  -1968  74  73
1720775578,629:  -2060  74  73
1720775578,629:  -1155  74  73
1720775578,629:   -403  74  73
1720775578,629:   -734  74  73
1720775578,629:  -1629  74  73
1720775578,629:  -1808  74  73
1720775578,629:   -973  74  73
1720775578,629:   -197  74  73
1720775578,629:   -485  74  73
1720775578,629:  -1435  74  73
1720775578,629:  -1744  74  73
1720775578,629:   -970  74  73
1720775578,629:   -110  74  73
1720775578,629:   -252  74  73
1720775578,660:  -1141  74  73
1720775578,660:  -1512  74  73
1720775578,660:   -818  74  73
1720775578,660:     33  74  73
1720775578,660:    -91  74  73
1720775578,660:  -1044  74  73
1720775578,660:  -1547  74  73
1720775578,660:   -918  74  73
1720775578,660:     28  74  73
1720775578,660:     77  74  73
1720775578,660:   -780  74  73
1720775578,660:  -1336  74  73
1720775578,660:   -800  74  73
1720775578,660:    127  74  73
1720775578,660:    215  74  73
1720775578,660:   -669  74  73
1720775578,660:  -1339  74  73
1720775578,660:   -890  74  73
1720775578,660:     96  74  73
1720775578,660:    347  74  73
1720775578,660:   -415  74  73
1720775578,660:  -1104  74  73
1720775578,691:   -737  74  73
1720775578,691:    215  74  73
1720775578,691:    489  74  73
1720775578,691:   -298  74  73
1720775578,691:  -1100  74  73
1720775578,691:   -834  74  73
1720775578,691:    162  74  73
1720775578,691:    605  74  73
1720775578,723:    -39  74  73
1720775578,723:   -844  74  73
1720775578,723:   -675  74  73
1720775578,723:    259  74  73
1720775578,723:    715  74  73
1720775578,723:     72  74  73
1720775578,723:   -817  74  73
1720775578,723:   -750  74  73
1720775578,723:    197  74  73
1720775578,723:    794  74  73
1720775578,723:    294  74  73
1720775578,723:   -579  74  73
1720775578,723:   -593  74  73
1720775578,723:    301  74  73
1720775578,723:    926  74  73
1720775578,753:    444  74  73
1720775578,753:   -512  74  73
1720775578,753:   -654  74  73
1720775578,753:    221  74  73
1720775578,753:    984  74  73
1720775578,753:    688  74  73
1720775578,753:   -187  74  73
1720775578,753:   -374  74  73
1720775578,753:    442  74  73
1720775578,753:   1204  74  73
1720775578,753:    907  74  73
1720775578,753:    -60  74  73
1720775578,753:   -384  74  73
1720775578,753:    393  74  73
1720775578,753:   1274  74  73
1720775578,753:   1144  74  73
1720775578,753:    240  74  73
1720775578,753:   -162  74  73
1720775578,753:    518  74  73
1720775578,753:   1379  74  73
1720775578,753:   1263  74  73
1720775578,753:    291  74  73
1720775578,785:   -254  74  73
1720775578,785:    341  74  73
1720775578,785:   1270  74  73
1720775578,785:   1301  74  73
1720775578,785:    403  74  73
1720775578,785:   -207  74  73
1720775578,785:    291  74  73
1720775578,785:   1203  74  73
1720775578,785:   1276  74  73
1720775578,785:    350  74  73
1720775578,785:   -386  74  73
1720775578,785:      6  74  73
1720775578,785:    966  74  73
1720775578,785:   1207  74  73
1720775578,785:    419  74  73
1720775578,817:   -321  74  73
1720775578,817:     -6  74  73
1720775578,817:    919  74  73
1720775578,817:   1182  74  73
1720775578,817:    374  74  73
1720775578,817:   -472  74  73
1720775578,817:   -247  74  73
1720775578,817:    737  74  73
1720775578,817:   1185  74  73
1720775578,817:    534  74  73
1720775578,817:   -308  74  73
1720775578,817:   -182  74  73
1720775578,817:    739  74  73
1720775578,817:   1205  74  73
1720775578,817:    556  74  73
1720775578,849:   -381  74  73
1720775578,849:   -373  74  73
1720775578,849:    542  74  73
1720775578,849:   1139  74  73
1720775578,849:    637  74  73
1720775578,849:   -266  74  73
1720775578,849:   -325  74  73
1720775578,849:    540  74  73
1720775578,849:   1155  74  73
1720775578,849:    663  74  73
1720775578,849:   -322  74  73
1720775578,849:   -497  74  73
1720775578,849:    359  74  73
1720775578,849:   1118  74  73
1720775578,849:    803  74  73
1720775578,881:   -121  74  73
1720775578,881:   -373  74  73
1720775578,881:    391  74  73
1720775578,881:   1128  74  73
1720775578,881:    823  74  73
1720775578,881:   -159  74  73
1720775578,881:   -516  74  73
1720775578,881:    218  74  73
1720775578,881:   1064  74  73
1720775578,881:    918  74  73
1720775578,881:      6  74  73
1720775578,881:   -408  74  73
1720775578,881:    254  74  73
1720775578,881:   1097  74  73
1720775578,881:    968  74  73
1720775578,881:    -17  74  73
1720775578,881:   -581  74  73
1720775578,881:      1  74  73
1720775578,881:    939  74  73
1720775578,881:   1005  74  73
1720775578,881:    146  74  73
1720775578,881:   -445  74  73
1720775578,881:     50  74  73
1720775578,913:    954  74  73
1720775578,913:   1031  74  73
1720775578,913:    121  74  73
1720775578,913:   -601  74  73
1720775578,913:   -195  74  73
1720775578,913:    781  74  73
1720775578,913:   1042  74  73
1720775578,913:    265  74  73
1720775578,913:   -478  74  73
1720775578,913:   -166  74  73
1720775578,913:    775  74  73
1720775578,913:   1073  74  73
1720775578,913:    297  74  73
1720775578,913:   -544  74  73
1720775578,913:   -338  74  73
1720775578,944:    623  74  73
1720775578,944:   1064  74  73
1720775578,944:    418  74  73
1720775578,944:   -421  74  73
1720775578,944:   -294  74  73
1720775578,944:    627  74  73
1720775578,944:   1098  74  73
1720775578,944:    451  74  73
1720775578,944:   -492  74  73
1720775578,944:   -492  74  73
1720775578,944:    432  74  73
1720775578,944:   1057  74  73
1720775578,944:    578  74  73
1720775578,944:   -328  74  73
1720775578,944:   -409  74  73
1720775578,975:    447  74  73
1720775578,975:   1079  74  73
1720775578,975:    611  74  73
1720775578,975:   -375  74  73
1720775578,975:   -574  74  73
1720775578,975:    266  74  73
1720775578,975:   1031  74  73
1720775578,975:    726  74  73
1720775578,975:   -211  74  73
1720775578,975:   -488  74  73
1720775578,975:    277  74  73
1720775578,975:   1052  74  73
1720775579,007:    780  74  73
1720775579,007:   -214  74  73
1720775579,007:   -615  74  73
1720775579,007:     97  74  73
1720775579,007:    974  74  73
1720775579,007:    872  74  73
1720775579,007:    -33  74  73
1720775579,007:   -483  74  73
1720775579,007:    147  74  73
1720775579,007:   1000  74  73
1720775579,007:    909  74  73
1720775579,007:    -54  74  73
1720775579,007:   -625  74  73
1720775579,007:    -57  74  73
1720775579,007:    885  74  73
1720775579,038:    964  74  73
1720775579,038:    106  74  73
1720775579,038:   -497  74  73
1720775579,038:     -7  74  73
1720775579,038:    915  74  73
1720775579,038:   1021  74  73
1720775579,038:    126  74  73
1720775579,038:   -603  74  73
1720775579,038:   -212  74  73
1720775579,038:    762  74  73
1720775579,038:   1034  74  73
1720775579,038:    271  74  73
1720775579,038:   -468  74  73
1720775579,038:   -161  74  73
1720775579,038:    773  74  73
1720775579,070:   1062  74  73
1720775579,070:    269  74  73
1720775579,070:   -591  74  73
1720775579,070:   -394  74  73
1720775579,070:    581  74  73
1720775579,070:   1049  74  73
1720775579,070:    418  74  73
1720775579,070:   -432  74  73
1720775579,070:   -327  74  73
1720775579,070:    591  74  73
1720775579,070:   1084  74  73
1720775579,070:    462  74  73
1720775579,070:   -480  74  73
1720775579,070:   -504  74  73
1720775579,070:    401  74  73
1720775579,070:   1025  74  73
1720775579,070:    554  74  73
1720775579,070:   -359  74  73
1720775579,070:   -462  74  73
1720775579,070:    381  74  73
1720775579,070:   1024  74  73
1720775579,070:    574  74  73
1720775579,101:   -410  74  73
1720775579,101:   -623  74  73
1720775579,101:    216  74  73
1720775579,101:   1008  74  73
1720775579,101:    738  74  73
1720775579,101:   -190  74  73
1720775579,101:   -490  74  73
1720775579,101:    250  74  73
1720775579,101:   1021  74  73
1720775579,101:    757  74  73
1720775579,101:   -246  74  73
1720775579,101:   -677  74  73
1720775579,101:     22  74  73
1720775579,101:    922  74  73
1720775579,101:    858  74  73
1720775579,133:    -42  74  73
1720775579,133:   -525  74  73
1720775579,133:     77  74  73
1720775579,133:    945  74  73
1720775579,133:    894  74  73
1720775579,133:    -60  74  73
1720775579,133:   -668  74  73
1720775579,133:   -137  74  73
1720775579,133:    815  74  73
1720775579,133:    941  74  73
1720775579,133:    110  74  73
1720775579,133:   -513  74  73
1720775579,133:    -46  74  73
1720775579,133:    901  74  73
1720775579,133:   1065  74  73
1720775579,164:    199  74  73
1720775579,164:   -561  74  73
1720775579,164:   -217  74  73
1720775579,164:    754  74  73
1720775579,164:   1064  74  73
1720775579,164:    318  74  73
1720775579,164:   -460  74  73
1720775579,164:   -206  74  73
1720775579,164:    722  74  73
1720775579,164:   1060  74  73
1720775579,164:    310  74  73
1720775579,164:   -564  74  73
1720775579,164:   -414  74  73
1720775579,164:    537  74  73
1720775579,164:   1020  74  73
1720775579,196:    402  74  73
1720775579,196:   -471  74  73
1720775579,196:   -401  74  73
1720775579,196:    518  74  73
1720775579,196:   1053  74  73
1720775579,196:    465  74  73
1720775579,196:   -490  74  73
1720775579,196:   -548  74  73
1720775579,196:    349  74  73
1720775579,196:   1004  74  73
1720775579,196:    559  74  73
1720775579,196:   -372  74  73
1720775579,196:   -518  74  73
1720775579,196:    315  74  73
1720775579,196:   1005  74  73
1720775579,227:    619  74  73
1720775579,227:   -334  74  73
1720775579,227:   -546  74  73
1720775579,227:    320  74  73
1720775579,227:   1190  74  73
1720775579,227:    981  74  73
1720775579,227:    -20  74  73
1720775579,227:   -574  74  73
1720775579,227:   -198  74  73
1720775579,227:    196  74  73
1720775579,227:   -430  74  73
1720775579,227:  -1800  74  73
1720775579,227:  -2560  74  73
1720775579,227:  -2003  74  73
1720775579,227:   -895  74  73
1720775579,258:   -361  74  73
1720775579,258:   -343  74  73
1720775579,258:    372  74  73
1720775579,258:   2514  74  73
1720775579,258:   5286  74  73
1720775579,258:   7329  74  73
1720775579,258:   8357  74  73
1720775579,258:   9429  74  73
1720775579,258:  11407  74  73
1720775579,258:  13726  74  73
1720775579,258:  15085  74  73
1720775579,258:  15082  74  73
1720775579,258:  14667  74  73
1720775579,258:  14775  74  73
1720775579,258:  14984  74  73
1720775579,290:  14068  78  74
1720775579,290:  11609  78  74
1720775579,290:   8656  78  74
1720775579,290:   6473  78  74
1720775579,290:   5055  78  74
1720775579,290:   3402  78  74
1720775579,290:   1037  78  74
1720775579,290:  -1236  78  74
1720775579,290:  -2355  78  74
1720775579,290:  -2410  78  74
1720775579,290:  -2438  78  74
1720775579,290:  -3019  78  74
1720775579,290:  -3530  78  74
1720775579,290:  -3131  78  74
1720775579,290:  -2128  78  74
1720775579,290:  -1715  78  74
1720775579,290:  -2454  78  74
1720775579,290:  -3495  78  74
1720775579,290:  -3649  78  74
1720775579,290:  -2968  78  74
1720775579,290:  -2626  78  74
1720775579,290:  -3337  78  74
1720775579,290:  -4353  78  74
1720775579,321:  -4398  78  74
1720775579,321:  -3383  78  74
1720775579,321:  -2513  78  74
1720775579,321:  -2715  78  74
1720775579,321:  -3469  78  74
1720775579,321:  -3550  78  74
1720775579,321:  -2747  78  74
1720775579,321:  -2132  78  74
1720775579,321:  -2593  78  74
1720775579,321:  -3590  78  74
1720775579,321:  -3787  78  74
1720775579,321:  -2835  78  74
1720775579,321:  -1828  78  74
1720775579,321:  -1876  78  74
1720775579,321:  -2688  78  74
1720775579,352:  -2994  78  74
1720775579,352:  -2289  78  74
1720775579,352:  -1499  78  74
1720775579,352:  -1690  78  74
1720775579,352:  -2627  78  74
1720775579,352:  -3017  78  74
1720775579,352:  -2252  78  74
1720775579,383:  -1225  78  74
1720775579,383:  -1145  78  74
1720775579,383:  -1960  78  74
1720775579,383:  -2441  78  74
1720775579,383:  -1845  78  74
1720775579,383:   -925  78  74
1720775579,383:   -879  78  74
1720775579,383:  -1760  78  74
1720775579,383:  -2354  78  74
1720775579,383:  -1815  78  74
1720775579,383:   -799  78  74
1720775579,383:   -572  78  74
1720775579,383:  -1341  78  74
1720775579,383:  -1978  78  74
1720775579,383:  -1544  78  74
1720775579,383:   -571  78  74
1720775579,383:   -320  78  74
1720775579,383:  -1112  78  74
1720775579,383:  -1864  78  74
1720775579,383:  -1534  78  74
1720775579,383:   -526  78  74
1720775579,383:   -122  78  74
1720775579,383:   -786  78  74
1720775579,415:  -1547  78  74
1720775579,415:  -1310  78  74
1720775579,415:   -355  78  74
1720775579,415:     62  78  74
1720775579,415:   -618  78  74
1720775579,415:  -1488  78  74
1720775579,415:  -1369  78  74
1720775579,415:   -403  78  74
1720775579,415:    159  78  74
1720775579,415:   -378  78  74
1720775579,415:  -1236  78  74
1720775579,415:  -1203  78  74
1720775579,415:   -297  78  74
1720775579,415:    283  78  74
1720775579,415:   -249  78  74
1720775579,446:  -1199  78  74
1720775579,446:  -1293  78  74
1720775579,446:   -402  78  74
1720775579,446:    312  78  74
1720775579,446:    -54  78  74
1720775579,446:   -955  78  74
1720775579,446:  -1126  78  74
1720775579,446:   -315  78  74
1720775579,446:    388  78  74
1720775579,446:     21  78  74
1720775579,446:   -958  78  74
1720775579,446:  -1242  78  74
1720775579,446:   -446  78  74
1720775579,446:    394  78  74
1720775579,446:    208  78  74
1720775579,478:   -696  78  74
1720775579,478:  -1040  78  74
1720775579,478:   -318  78  74
1720775579,478:    520  78  74
1720775579,478:    357  78  74
1720775579,478:   -610  78  74
1720775579,478:  -1089  78  74
1720775579,478:   -436  78  74
1720775579,478:    492  78  74
1720775579,478:    500  78  74
1720775579,478:   -368  78  74
1720775579,478:   -886  78  74
1720775579,478:   -312  78  74
1720775579,478:    599  78  74
1720775579,478:    635  78  74
1720775579,510:   -274  78  74
1720775579,510:   -911  78  74
1720775579,510:   -415  78  74
1720775579,510:    576  78  74
1720775579,510:    794  78  74
1720775579,510:     22  78  74
1720775579,510:   -619  78  74
1720775579,510:   -191  78  74
1720775579,510:    777  78  74
1720775579,510:   1023  78  74
1720775579,510:    224  78  74
1720775579,510:   -533  78  74
1720775579,510:   -201  78  74
1720775579,510:    817  78  74
1720775579,510:   1228  78  74
1720775579,541:    563  78  74
1720775579,541:   -200  78  74
1720775579,541:     45  78  74
1720775579,541:   1017  78  74
1720775579,541:   1445  78  74
1720775579,541:    754  78  74
1720775579,541:   -141  78  74
1720775579,541:    -40  78  74
1720775579,541:    921  78  74
1720775579,541:   1478  78  74
1720775579,541:    922  78  74
1720775579,541:     37  78  74
1720775579,541:     53  78  74
1720775579,541:    954  78  74
1720775579,541:   1520  78  74
1720775579,573:    949  78  74
1720775579,573:    -53  78  74
1720775579,573:   -181  78  74
1720775579,573:    703  78  74
1720775579,573:   1405  78  74
1720775579,573:    997  78  74
1720775579,573:     39  78  74
1720775579,573:   -155  78  74
1720775579,573:    683  78  74
1720775579,573:   1421  78  74
1720775579,573:   1044  78  74
1720775579,573:      2  78  74
1720775579,573:   -345  78  74
1720775579,573:    434  78  74
1720775579,573:   1281  78  74
1720775579,604:   1074  78  74
1720775579,604:    100  78  74
1720775579,604:   -313  78  74
1720775579,604:    390  78  74
1720775579,604:   1248  78  74
1720775579,604:   1081  78  74
1720775579,604:     59  78  74
1720775579,604:   -485  78  74
1720775579,604:    151  78  74
1720775579,604:   1104  78  74
1720775579,604:   1119  78  74
1720775579,604:    201  78  74
1720775579,604:   -384  78  74
1720775579,604:    167  78  74
1720775579,604:   1102  78  74
1720775579,604:   1144  78  74
1720775579,604:    185  78  74
1720775579,604:   -527  78  74
1720775579,604:    -56  78  74
1720775579,604:    958  78  74
1720775579,604:   1183  78  74
1720775579,604:    349  78  74
1720775579,636:   -388  78  74
1720775579,636:     -8  78  74
1720775579,636:    978  78  74
1720775579,636:   1234  78  74
1720775579,636:    370  78  74
1720775579,636:   -499  78  74
1720775579,636:   -236  78  74
1720775579,636:    793  78  74
1720775579,636:   1231  78  74
1720775579,636:    529  78  74
1720775579,636:   -333  78  74
1720775579,636:   -162  78  74
1720775579,636:    809  78  74
1720775579,636:   1264  78  74
1720775579,636:    553  78  74
1720775579,668:   -416  78  74
1720775579,668:   -370  78  74
1720775579,668:    607  78  74
1720775579,668:   1211  78  74
1720775579,668:    656  78  74
1720775579,668:   -285  78  74
1720775579,668:   -314  78  74
1720775579,668:    612  78  74
1720775579,668:   1242  78  74
1720775579,668:    700  78  74
1720775579,668:   -333  78  74
1720775579,668:   -493  78  74
1720775579,668:    416  78  74
1720775579,668:   1187  78  74
1720775579,668:    813  78  74
1720775579,698:   -179  78  74
1720775579,698:   -433  78  74
1720775579,698:    389  78  74
1720775579,698:   1160  78  74
1720775579,698:    807  78  74
1720775579,698:   -262  78  74
1720775579,698:   -654  78  74
1720775579,698:    120  78  74
1720775579,698:   1016  78  74
1720775579,698:    858  78  74
1720775579,698:   -108  78  74
1720775579,698:   -544  78  74
1720775579,698:    157  78  74
1720775579,698:   1049  78  74
1720775579,698:    916  78  74
1720775579,728:   -109  78  74
1720775579,728:   -680  78  74
1720775579,728:    -47  78  74
1720775579,728:    941  78  74
1720775579,728:    988  78  74
1720775579,728:     60  78  74
1720775579,728:   -568  78  74
1720775579,728:    -35  78  74
1720775579,728:    931  78  74
1720775579,728:   1019  78  74
1720775579,728:     65  78  74
1720775579,728:   -682  78  74
1720775579,728:   -243  78  74
1720775579,728:    784  78  74
1720775579,728:   1044  78  74
1720775579,760:    219  78  74
1720775579,760:   -549  78  74
1720775579,760:   -197  78  74
1720775579,760:    796  78  74
1720775579,760:   1086  78  74
1720775579,760:    239  78  74
1720775579,760:   -648  78  74
1720775579,760:   -407  78  74
1720775579,760:    628  78  74
1720775579,760:   1094  78  74
1720775579,760:    401  78  74
1720775579,760:   -484  78  74
1720775579,760:   -336  78  74
1720775579,760:    645  78  74
1720775579,760:   1130  78  74
1720775579,792:    426  78  74
1720775579,792:   -570  78  74
1720775579,792:   -546  78  74
1720775579,792:    451  78  74
1720775579,792:   1102  78  74
1720775579,792:    567  78  74
1720775579,792:   -405  78  74
1720775579,792:   -472  78  74
1720775579,792:    467  78  74
1720775579,792:   1150  78  74
1720775579,792:    638  78  74
1720775579,792:   -431  78  74
1720775579,792:   -652  78  74
1720775579,792:    246  78  74
1720775579,792:   1068  78  74
1720775579,824:    750  78  74
1720775579,824:   -243  78  74
1720775579,824:   -537  78  74
1720775579,824:    271  78  74
1720775579,824:   1081  78  74
1720775579,824:    780  78  74
1720775579,824:   -276  78  74
1720775579,824:   -694  78  74
1720775579,824:     69  78  74
1720775579,824:    995  78  74
1720775579,824:    878  78  74
1720775579,824:    -84  78  74
1720775579,824:   -554  78  74
1720775579,824:    123  78  74
1720775579,824:   1036  78  74
1720775579,854:    946  78  74
1720775579,854:    -67  78  74
1720775579,854:   -669  78  74
1720775579,854:    -75  78  74
1720775579,854:    910  78  74
1720775579,854:    988  78  74
1720775579,854:     83  78  74
1720775579,854:   -550  78  74
1720775579,854:    -33  78  74
1720775579,854:    937  78  74
1720775579,854:   1043  78  74
1720775579,854:     93  78  74
1720775579,854:   -676  78  74
1720775579,854:   -251  78  74
1720775579,854:    798  78  74
1720775579,854:   1103  78  74
1720775579,854:    300  78  74
1720775579,854:   -488  78  74
1720775579,854:   -167  78  74
1720775579,854:    833  78  74
1720775579,854:   1163  78  74
1720775579,854:    343  78  74
1720775579,854:   -565  78  74
1720775579,885:   -362  78  74
1720775579,885:    663  78  74
1720775579,885:   1155  78  74
1720775579,885:    484  78  74
1720775579,885:   -418  78  74
1720775579,885:   -302  78  74
1720775579,885:    684  78  74
1720775579,885:   1222  78  74
1720775579,885:    573  78  74
1720775579,885:   -417  78  74
1720775579,885:   -426  78  74
1720775579,885:    554  78  74
1720775579,885:   1233  78  74
1720775579,885:    739  78  74
1720775579,885:   -232  78  74
1720775579,917:   -348  78  74
1720775579,917:    540  78  74
1720775579,917:   1215  78  74
1720775579,917:    729  78  74
1720775579,917:   -324  78  74
1720775579,917:   -562  78  74
1720775579,917:    313  78  74
1720775579,917:   1142  78  74
1720775579,917:    854  78  74
1720775579,917:   -122  78  74
1720775579,917:   -430  78  74
1720775579,917:    360  78  74
1720775579,917:   1180  78  74
1720775579,917:    907  78  74
1720775579,917:   -146  78  74
1720775579,948:   -599  78  74
1720775579,948:    127  78  74
1720775579,948:   1052  78  74
1720775579,948:    963  78  74
1720775579,948:     13  78  74
1720775579,948:   -481  78  74
1720775579,948:    171  78  74
1720775579,948:   1087  78  74
1720775579,948:   1023  78  74
1720775579,948:     17  78  74
1720775579,948:   -611  78  74
1720775579,948:    -36  78  74
1720775579,948:    970  78  74
1720775579,948:   1089  78  74
1720775579,948:    197  78  74
1720775579,979:   -472  78  74
1720775579,979:      9  78  74
1720775579,979:    989  78  74
1720775579,979:   1143  78  74
1720775579,979:    226  78  74
1720775579,979:   -564  78  74
1720775579,979:   -185  78  74
1720775579,979:    840  78  74
1720775579,979:   1154  78  74
1720775579,979:    357  78  74
1720775579,979:   -455  78  74
1720775579,979:   -167  78  74
1720775579,979:    827  78  74
1720775579,979:   1178  78  74
1720775579,979:    370  78  74
1720775579,979:   -563  78  74
1720775579,979:   -400  78  74
1720775579,979:    619  78  74
1720775579,979:   1142  78  74
1720775579,979:    501  78  74
1720775580,011:   -409  78  74
1720775580,011:   -325  78  74
1720775580,011:    645  78  74
1720775580,011:   1192  78  74
1720775580,011:    547  78  74
1720775580,011:   -470  78  74
1720775580,011:   -520  78  74
1720775580,011:    445  78  74
1720775580,011:   1141  78  74
1720775580,011:    663  78  74
1720775580,011:   -315  78  74
1720775580,011:   -437  78  74
1720775580,011:    483  78  74
1720775580,011:   1223  78  74
1720775580,011:    787  78  74
1720775580,043:   -267  78  74
1720775580,043:   -532  78  74
1720775580,043:    338  78  74
1720775580,043:   1192  78  74
1720775580,043:    919  78  74
1720775580,043:    -89  78  74
1720775580,043:   -457  78  74
1720775580,075:    301  78  74
1720775580,075:   1135  78  74
1720775580,075:    889  78  74
1720775580,075:   -167  78  74
1720775580,075:   -650  78  74
1720775580,075:     65  78  74
1720775580,075:   1021  78  74
1720775580,075:    969  78  74
1720775580,075:     13  78  74
1720775580,075:   -528  78  74
1720775580,075:     85  78  74
1720775580,075:   1012  78  74
1720775580,075:    984  78  74
1720775580,075:    -10  78  74
1720775580,075:   -667  78  74
1720775580,075:   -121  78  74
1720775580,075:    896  78  74
1720775580,075:   1051  78  74
1720775580,075:    169  78  74
1720775580,075:   -533  78  74
1720775580,075:    -89  78  74
1720775580,075:    890  78  74
1720775580,075:   1066  78  74
1720775580,107:    151  78  74
1720775580,107:   -662  78  74
1720775580,107:   -289  78  74
1720775580,107:    796  78  74
1720775580,107:   1220  78  74
1720775580,107:    520  78  74
1720775580,107:   -272  78  74
1720775580,107:    -61  78  74
1720775580,107:    767  78  74
1720775580,107:    877  78  74
1720775580,107:   -242  78  74
1720775580,107:  -1548  78  74
1720775580,107:  -1785  78  74
1720775580,107:  -1122  78  74
1720775580,107:   -805  78  74
1720775580,138:  -1400  78  74
1720775580,138:  -1949  78  74
1720775580,138:  -1172  78  74
1720775580,138:    823  78  74
1720775580,138:   2732  78  74
1720775580,138:   3772  78  74
1720775580,138:   4659  78  74
1720775580,138:   6558  78  74
1720775580,138:   9348  78  74
1720775580,138:  11682  78  74
1720775580,138:  12674  78  74
1720775580,138:  12981  78  74
1720775580,138:  13848  78  74
1720775580,138:  15311  78  74
1720775580,138:  16086  78  74
1720775580,138:  15219  78  74
1720775580,138:  13304  78  74
1720775580,138:  11698  78  74
1720775580,138:  10687  78  74
1720775580,138:   9219  78  74
1720775580,138:   6490  78  74
1720775580,138:   3234  78  74
1720775580,170:    985  68  72
1720775580,170:    162  68  72
1720775580,170:   -386  68  72
1720775580,170:  -1768  68  72
1720775580,170:  -3532  68  72
1720775580,170:  -4178  68  72
1720775580,170:  -3202  68  72
1720775580,170:  -1858  68  72
1720775580,170:  -1667  68  72
1720775580,170:  -2620  68  72
1720775580,170:  -3324  68  72
1720775580,170:  -2920  68  72
1720775580,170:  -2186  68  72
1720775580,170:  -2399  68  72
1720775580,170:  -3591  68  72
1720775580,202:  -4442  68  72
1720775580,202:  -4033  68  72
1720775580,202:  -3038  68  72
1720775580,202:  -2774  68  72
1720775580,202:  -3457  68  72
1720775580,202:  -3940  68  72
1720775580,202:  -3313  68  72
1720775580,202:  -2211  68  72
1720775580,233:  -1981  68  72
1720775580,233:  -2924  68  72
1720775580,233:  -3836  68  72
1720775580,233:  -3566  68  72
1720775580,233:  -2509  68  72
1720775580,233:  -2008  68  72
1720775580,233:  -2570  68  72
1720775580,233:  -3215  68  72
1720775580,233:  -2839  68  72
1720775580,233:  -1770  68  72
1720775580,233:  -1323  68  72
1720775580,233:  -2059  68  72
1720775580,233:  -2990  68  72
1720775580,233:  -2855  68  72
1720775580,233:  -1799  68  72
1720775580,264:  -1135  68  72
1720775580,264:  -1608  68  72
1720775580,264:  -2420  68  72
1720775580,264:  -2320  68  72
1720775580,264:  -1335  68  72
1720775580,264:   -714  68  72
1720775580,264:  -1263  68  72
1720775580,264:  -2240  68  72
1720775580,264:  -2306  68  72
1720775580,264:  -1325  68  72
1720775580,264:   -526  68  72
1720775580,264:   -862  68  72
1720775580,264:  -1765  68  72
1720775580,264:  -1904  68  72
1720775580,264:  -1011  68  72
1720775580,264:   -233  68  72
1720775580,264:   -587  68  72
1720775580,264:  -1602  68  72
1720775580,264:  -1900  68  72
1720775580,264:  -1060  68  72
1720775580,264:   -161  68  72
1720775580,264:   -337  68  72
1720775580,296:  -1277  68  72
1720775580,296:  -1641  68  72
1720775580,296:   -880  68  72
1720775580,296:     21  68  72
1720775580,296:   -118  68  72
1720775580,296:  -1108  68  72
1720775580,296:  -1599  68  72
1720775580,296:   -908  68  72
1720775580,296:     79  68  72
1720775580,296:    103  68  72
1720775580,296:   -802  68  72
1720775580,296:  -1352  68  72
1720775580,296:   -759  68  72
1720775580,296:    197  68  72
1720775580,296:    236  68  72
1720775580,328:   -722  68  72
1720775580,328:  -1406  68  72
1720775580,328:   -896  68  72
1720775580,328:    146  68  72
1720775580,328:    382  68  72
1720775580,328:   -438  68  72
1720775580,328:  -1149  68  72
1720775580,328:   -746  68  72
1720775580,328:    238  68  72
1720775580,328:    487  68  72
1720775580,328:   -358  68  72
1720775580,328:  -1177  68  72
1720775580,328:   -872  68  72
1720775580,328:    157  68  72
1720775580,328:    573  68  72
1720775580,358:   -125  68  72
1720775580,358:   -941  68  72
1720775580,358:   -719  68  72
1720775580,358:    263  68  72
1720775580,358:    698  68  72
1720775580,358:    -20  68  72
1720775580,358:   -953  68  72
1720775580,358:   -855  68  72
1720775580,358:    147  68  72
1720775580,358:    752  68  72
1720775580,358:    211  68  72
1720775580,358:   -688  68  72
1720775580,358:   -674  68  72
1720775580,358:    260  68  72
1720775580,358:    872  68  72
1720775580,390:    331  68  72
1720775580,390:   -657  68  72
1720775580,390:   -761  68  72
1720775580,390:    172  68  72
1720775580,390:    933  68  72
1720775580,390:    564  68  72
1720775580,390:   -378  68  72
1720775580,390:   -557  68  72
1720775580,390:    315  68  72
1720775580,390:   1098  68  72
1720775580,390:    759  68  72
1720775580,390:   -256  68  72
1720775580,390:   -573  68  72
1720775580,390:    256  68  72
1720775580,390:   1169  68  72
1720775580,421:   1026  68  72
1720775580,421:    105  68  72
1720775580,421:   -264  68  72
1720775580,421:    488  68  72
1720775580,421:   1399  68  72
1720775580,421:   1286  68  72
1720775580,421:    308  68  72
1720775580,421:   -203  68  72
1720775580,421:    459  68  72
1720775580,421:   1434  68  72
1720775580,421:   1461  68  72
1720775580,421:    544  68  72
1720775580,421:    -51  68  72
1720775580,421:    491  68  72
1720775580,421:   1422  68  72
1720775580,421:   1463  68  72
1720775580,421:    496  68  72
1720775580,421:   -231  68  72
1720775580,421:    223  68  72
1720775580,421:   1227  68  72
1720775580,421:   1444  68  72
1720775580,421:    592  68  72
1720775580,421:   -176  68  72
1720775580,453:    171  68  72
1720775580,453:   1137  68  72
1720775580,453:   1387  68  72
1720775580,453:    522  68  72
1720775580,453:   -362  68  72
1720775580,453:   -119  68  72
1720775580,453:    897  68  72
1720775580,453:   1335  68  72
1720775580,453:    633  68  72
1720775580,453:   -243  68  72
1720775580,453:    -96  68  72
1720775580,453:    861  68  72
1720775580,453:   1320  68  72
1720775580,453:    617  68  72
1720775580,453:   -358  68  72
1720775580,484:   -329  68  72
1720775580,484:    639  68  72
1720775580,484:   1257  68  72
1720775580,484:    722  68  72
1720775580,484:   -221  68  72
1720775580,484:   -275  68  72
1720775580,484:    630  68  72
1720775580,484:   1264  68  72
1720775580,484:    744  68  72
1720775580,484:   -281  68  72
1720775580,484:   -459  68  72
1720775580,484:    434  68  72
1720775580,484:   1215  68  72
1720775580,484:    878  68  72
1720775580,484:    -86  68  72
1720775580,515:   -342  68  72
1720775580,515:    462  68  72
1720775580,515:   1234  68  72
1720775580,515:    912  68  72
1720775580,515:   -119  68  72
1720775580,515:   -498  68  72
1720775580,515:    265  68  72
1720775580,515:   1151  68  72
1720775580,515:   1003  68  72
1720775580,515:     48  68  72
1720775580,515:   -395  68  72
1720775580,515:    284  68  72
1720775580,515:   1163  68  72
1720775580,515:   1041  68  72
1720775580,515:     30  68  72
1720775580,547:   -546  68  72
1720775580,547:     66  68  72
1720775580,547:   1047  68  72
1720775580,547:   1118  68  72
1720775580,547:    221  68  72
1720775580,547:   -401  68  72
1720775580,547:    110  68  72
1720775580,547:   1059  68  72
1720775580,547:   1156  68  72
1720775580,547:    225  68  72
1720775580,547:   -521  68  72
1720775580,547:   -104  68  72
1720775580,547:    907  68  72
1720775580,547:   1178  68  72
1720775580,547:    375  68  72
1720775580,579:   -390  68  72
1720775580,579:    -56  68  72
1720775580,579:    931  68  72
1720775580,579:   1243  68  72
1720775580,579:    424  68  72
1720775580,579:   -470  68  72
1720775580,579:   -268  68  72
1720775580,579:    738  68  72
1720775580,579:   1214  68  72
1720775580,579:    549  68  72
1720775580,579:   -339  68  72
1720775580,579:   -233  68  72
1720775580,579:    714  68  72
1720775580,579:   1216  68  72
1720775580,579:    569  68  72
1720775580,611:   -390  68  72
1720775580,611:   -377  68  72
1720775580,611:    591  68  72
1720775580,611:   1241  68  72
1720775580,611:    736  68  72
1720775580,611:   -220  68  72
1720775580,611:   -312  68  72
1720775580,611:    583  68  72
1720775580,611:   1249  68  72
1720775580,611:    756  68  72
1720775580,611:   -292  68  72
1720775580,611:   -524  68  72
1720775580,611:    342  68  72
1720775580,611:   1149  68  72
1720775580,611:    844  68  72
1720775580,643:   -134  68  72
1720775580,643:   -436  68  72
1720775580,643:    352  68  72
1720775580,643:   1163  68  72
1720775580,643:    892  68  72
1720775580,643:   -136  68  72
1720775580,643:   -555  68  72
1720775580,643:    187  68  72
1720775580,643:   1104  68  72
1720775580,643:   1002  68  72
1720775580,643:     51  68  72
1720775580,643:   -439  68  72
1720775580,643:    200  68  72
1720775580,643:   1090  68  72
1720775580,643:   1005  68  72
1720775580,643:      1  68  72
1720775580,643:   -616  68  72
1720775580,643:    -48  68  72
1720775580,643:    937  68  72
1720775580,643:   1047  68  72
1720775580,643:    171  68  72
1720775580,643:   -473  68  72
1720775580,674:      9  68  72
1720775580,674:    969  68  72
1720775580,674:   1112  68  72
1720775580,674:    209  68  72
1720775580,674:   -558  68  72
1720775580,674:   -178  68  72
1720775580,674:    831  68  72
1720775580,674:   1145  68  72
1720775580,674:    379  68  72
1720775580,674:   -401  68  72
1720775580,674:   -115  68  72
1720775580,674:    852  68  72
1720775580,674:   1194  68  72
1720775580,674:    417  68  72
1720775580,674:   -471  68  72
1720775580,706:   -296  68  72
1720775580,706:    695  68  72
1720775580,706:   1195  68  72
1720775580,706:    566  68  72
1720775580,706:   -314  68  72
1720775580,706:   -229  68  72
1720775580,706:    708  68  72
1720775580,706:   1227  68  72
1720775580,706:    598  68  72
1720775580,706:   -382  68  72
1720775580,706:   -417  68  72
1720775580,706:    531  68  72
1720775580,706:   1216  68  72
1720775580,706:    764  68  72
1720775580,706:   -181  68  72
1720775580,738:   -313  68  72
1720775580,738:    544  68  72
1720775580,738:   1223  68  72
1720775580,738:    772  68  72
1720775580,738:   -264  68  72
1720775580,738:   -536  68  72
1720775580,738:    285  68  72
1720775580,738:   1093  68  72
1720775580,738:    828  68  72
1720775580,738:   -125  68  72
1720775580,738:   -445  68  72
1720775580,738:    315  68  72
1720775580,738:   1133  68  72
1720775580,738:    897  68  72
1720775580,738:   -117  68  72
1720775580,768:   -570  68  72
1720775580,768:    129  68  72
1720775580,768:   1044  68  72
1720775580,768:    977  68  72
1720775580,768:     49  68  72
1720775580,768:   -457  68  72
1720775580,768:    159  68  72
1720775580,768:   1063  68  72
1720775580,768:   1029  68  72
1720775580,768:     58  68  72
1720775580,768:   -574  68  72
1720775580,768:    -38  68  72
1720775580,768:    942  68  72
1720775580,768:   1078  68  72
1720775580,768:    215  68  72
1720775580,800:   -459  68  72
1720775580,800:    -21  68  72
1720775580,800:    928  68  72
1720775580,800:   1096  68  72
1720775580,800:    213  68  72
1720775580,800:   -569  68  72
1720775580,800:   -214  68  72
1720775580,800:    798  68  72
1720775580,800:   1141  68  72
1720775580,800:    391  68  72
1720775580,800:   -407  68  72
1720775580,800:   -144  68  72
1720775580,800:    825  68  72
1720775580,800:   1186  68  72
1720775580,800:    408  68  72
1720775580,832:   -516  68  72
1720775580,832:   -373  68  72
1720775580,832:    631  68  72
1720775580,832:   1171  68  72
1720775580,832:    558  68  72
1720775580,832:   -348  68  72
1720775580,832:   -292  68  72
1720775580,832:    658  68  72
1720775580,832:   1222  68  72
1720775580,832:    614  68  72
1720775580,832:   -398  68  72
1720775580,832:   -482  68  72
1720775580,832:    452  68  72
1720775580,832:   1164  68  72
1720775580,832:    734  68  72
1720775580,832:   -224  68  72
1720775580,832:   -382  68  72
1720775580,832:    481  68  72
1720775580,832:   1202  68  72
1720775580,832:    789  68  72
1720775580,832:   -245  68  72
1720775580,832:   -535  68  72
1720775580,832:    294  68  72
1720775580,863:   1144  68  72
1720775580,863:    916  68  72
1720775580,863:    -38  68  72
1720775580,863:   -383  68  72
1720775580,863:    374  68  72
1720775580,863:   1222  68  72
1720775580,863:   1014  68  72
1720775580,863:    -13  68  72
1720775580,863:   -506  68  72
1720775580,863:    177  68  72
1720775580,863:   1120  68  72
1720775580,863:   1091  68  72
1720775580,863:    158  68  72
1720775580,863:   -392  68  72
1720775580,863:    195  68  72
1720775580,894:   1125  68  72
1720775580,894:   1145  68  72
1720775580,894:    199  68  72
1720775580,894:   -459  68  72
1720775580,894:     42  68  72
1720775580,894:   1028  68  72
1720775580,894:   1207  68  72
1720775580,926:    376  68  72
1720775580,926:   -307  68  72
1720775580,926:    103  68  72
1720775580,926:   1046  68  72
1720775580,926:   1236  68  72
1720775580,926:    376  68  72
1720775580,926:   -406  68  72
1720775580,926:    -60  68  72
1720775580,926:    964  68  72
1720775580,926:   1341  68  72
1720775580,926:    616  68  72
1720775580,926:   -187  68  72
1720775580,926:     55  68  72
1720775580,926:   1024  68  72
1720775580,926:   1414  68  72
1720775580,926:    660  68  72
1720775580,926:   -278  68  72
1720775580,926:   -176  68  72
1720775580,926:    800  68  72
1720775580,926:   1346  68  72
1720775580,926:    750  68  72
1720775580,926:   -168  68  72
1720775580,926:   -154  68  72
1720775580,957:    760  68  72
1720775580,957:   1320  68  72
1720775580,957:    723  68  72
1720775580,957:   -292  68  72
1720775580,957:   -395  68  72
1720775580,957:    534  68  72
1720775580,957:   1268  68  72
1720775580,957:    863  68  72
1720775580,957:   -104  68  72
1720775580,957:   -300  68  72
1720775580,957:    544  68  72
1720775580,957:   1282  68  72
1720775580,957:    896  68  72
1720775580,957:   -151  68  72
1720775580,957:   -492  68  72
1720775580,988:    294  68  72
1720775580,988:   1151  68  72
1720775580,988:    965  68  72
1720775580,988:     35  68  72
1720775580,988:   -323  68  72
1720775580,988:    433  68  72
1720775580,988:   1338  68  72
1720775580,988:   1208  68  72
1720775580,988:    171  68  72
1720775580,988:   -499  68  72
1720775580,988:   -121  68  72
1720775580,988:    492  68  72
1720775581,020:    154  68  72
1720775581,020:  -1097  68  72
1720775581,020:  -1992  68  72
1720775581,020:  -1675  68  72
1720775581,020:   -774  68  72
1720775581,020:   -443  68  72
1720775581,020:   -757  68  72
1720775581,020:   -498  68  72
1720775581,020:   1241  68  72
1720775581,020:   3839  68  72
1720775581,020:   5918  68  72
1720775581,020:   7043  68  72
1720775581,020:   8155  68  72
1720775581,020:  10174  68  72
1720775581,020:  12622  68  72
1720775581,053:  14187  68  72
1720775581,053:  14347  68  72
1720775581,053:  14003  68  72
1720775581,053:  14195  68  72
1720775581,053:  14657  68  72
1720775581,053:  14170  68  72
1720775581,053:  12164  68  72
1720775581,053:   9493  68  72
1720775581,053:   7373  68  72
1720775581,053:   5897  68  72
1720775581,053:   4189  68  72
1720775581,053:   1804  68  72
1720775581,053:   -479  68  72
1720775581,053:  -1612  68  72
1720775581,053:  -1684  68  72
1720775581,053:  -1762  68  72
1720775581,053:  -2449  68  72
1720775581,053:  -3089  68  72
1720775581,053:  -2737  68  72
1720775581,053:  -1643  68  72
1720775581,053:  -1102  68  72
1720775581,053:  -1848  68  72
1720775581,085:  -3078  68  72
1720775581,085:  -3413  68  72
1720775581,085:  -2695  68  72
1720775581,085:  -2122  68  72
1720775581,085:  -2644  68  72
1720775581,085:  -3700  68  72
1720775581,085:  -3941  68  72
1720775581,085:  -3052  68  72
1720775581,085:  -2159  68  72
1720775581,085:  -2329  68  72
1720775581,085:  -3184  68  72
1720775581,085:  -3410  68  72
1720775581,085:  -2580  68  72
1720775581,085:  -1735  68  72
1720775581,085:  -1978  68  72
1720775581,115:  -2982  68  72
1720775581,115:  -3376  68  72
1720775581,115:  -2572  68  72
1720775581,115:  -1545  68  72
1720775581,115:  -1526  68  72
1720775581,115:  -2404  68  72
1720775581,115:  -2870  68  72
1720775581,115:  -2205  68  72
1720775581,115:  -1240  68  72
1720775581,115:  -1209  68  72
1720775581,115:  -2092  68  72
1720775581,115:  -2618  68  72
1720775581,115:  -1971  68  72
1720775581,115:   -908  68  72
1720775581,115:   -736  68  72
1720775581,147:  -1599  68  72
1720775581,147:  -2265  68  72
1720775581,147:  -1783  68  72
1720775581,147:   -754  68  72
1720775581,147:   -491  68  72
1720775581,147:  -1272  68  72
1720775581,147:  -1956  68  72
1720775581,147:  -1530  68  72
1720775581,147:   -499  68  72
1720775581,147:   -189  68  72
1720775581,147:   -992  68  72
1720775581,147:  -1808  68  72
1720775581,147:  -1504  68  72
1720775581,147:   -445  68  72
1720775581,147:     23  68  72
1720775581,179:   -647  68  72
1720775581,179:  -1480  68  72
1720775581,179:  -1284  68  72
1720775581,179:   -286  68  72
1720775581,179:    203  68  72
1720775581,179:   -467  68  72
1720775581,179:  -1398  68  72
1720775581,179:  -1325  68  72
1720775581,179:   -330  68  72
1720775581,179:    291  68  72
1720775581,179:   -242  68  72
1720775581,179:  -1159  68  72
1720775581,179:  -1165  68  72
1720775581,179:   -211  68  72
1720775581,179:    449  68  72
1720775581,211:    -66  68  72
1720775581,211:  -1087  68  72
1720775581,211:  -1241  68  72
1720775581,211:   -314  68  72
1720775581,211:    490  68  72
1720775581,211:    154  68  72
1720775581,211:   -815  68  72
1720775581,211:  -1058  68  72
1720775581,211:   -217  68  72
1720775581,211:    593  68  72
1720775581,211:    284  68  72
1720775581,211:   -756  68  72
1720775581,211:  -1138  68  72
1720775581,211:   -349  68  72
1720775581,211:    577  68  72
1720775581,211:    452  68  72
1720775581,211:   -505  68  72
1720775581,211:   -952  68  72
1720775581,211:   -251  68  72
1720775581,211:    671  68  72
1720775581,211:    581  68  72
1720775581,211:   -427  68  72
1720775581,211:  -1013  68  72
1720775581,243:   -398  68  72
1720775581,243:    604  68  72
1720775581,243:    692  68  72
1720775581,243:   -201  68  72
1720775581,243:   -814  68  72
1720775581,243:   -274  68  72
1720775581,243:    713  68  72
1720775581,243:    834  68  72
1720775581,243:    -94  68  72
1720775581,243:   -828  68  72
1720775581,243:   -370  68  72
1720775581,243:    691  68  72
1720775581,243:    987  68  72
1720775581,243:    176  68  72
1720775581,243:   -594  68  72
1720775581,274:   -234  68  72
1720775581,274:    794  68  72
1720775581,274:   1123  68  72
1720775581,274:    291  68  72
1720775581,274:   -607  68  72
1720775581,274:   -365  68  72
1720775581,274:    706  68  72
1720775581,274:   1227  68  72
1720775581,274:    575  68  72
1720775581,274:   -296  68  72
1720775581,274:   -135  68  72
1720775581,274:    886  68  72
1720775581,274:   1430  68  72
1720775581,274:    775  68  72
1720775581,274:   -208  68  72
1720775581,305:   -190  68  72
1720775581,305:    813  68  72
1720775581,305:   1498  68  72
1720775581,305:   1003  68  72
1720775581,305:     47  68  72
1720775581,305:    -34  68  72
1720775581,305:    880  68  72
1720775581,305:   1550  68  72
1720775581,305:   1041  68  72
1720775581,305:    -23  68  72
1720775581,305:   -250  68  72
1720775581,305:    634  68  72
1720775581,305:   1440  68  72
1720775581,305:   1102  68  72
1720775581,305:     80  68  72
1720775581,336:   -245  68  72
1720775581,336:    547  68  72
1720775581,336:   1358  68  72
1720775581,336:   1054  68  72
1720775581,336:    -32  68  72
1720775581,336:   -497  68  72
1720775581,336:    232  68  72
1720775581,336:   1153  68  72
1720775581,336:   1036  68  72
1720775581,336:     50  68  72
1720775581,336:   -464  68  72
1720775581,336:    184  68  72
1720775581,336:   1094  68  72
1720775581,336:   1006  68  72
1720775581,336:    -33  68  72
1720775581,368:   -677  68  72
1720775581,368:    -93  68  72
1720775581,368:    933  68  72
1720775581,368:   1058  68  72
1720775581,368:    153  68  72
1720775581,368:   -527  68  72
1720775581,368:    -39  68  72
1720775581,368:    962  68  72
1720775581,368:   1130  68  72
1720775581,368:    206  68  72
1720775581,368:   -598  68  72
1720775581,368:   -221  68  72
1720775581,368:    822  68  72
1720775581,368:   1156  68  72
1720775581,368:    363  68  72
1720775581,399:   -462  68  72
1720775581,399:   -183  68  72
1720775581,399:    819  68  72
1720775581,399:   1187  68  72
1720775581,399:    385  68  72
1720775581,399:   -556  68  72
1720775581,399:   -398  68  72
1720775581,399:    634  68  72
1720775581,399:   1180  68  72
1720775581,399:    547  68  72
1720775581,399:   -375  68  72
1720775581,399:   -307  68  72
1720775581,399:    665  68  72
1720775581,399:   1229  68  72
1720775581,399:    595  68  72
1720775581,430:   -430  68  72
1720775581,430:   -493  68  72
1720775581,430:    469  68  72
1720775581,430:   1176  68  72
1720775581,430:    704  68  72
1720775581,430:   -288  68  72
1720775581,430:   -438  68  72
1720775581,430:    456  68  72
1720775581,430:   1180  68  72
1720775581,430:    732  68  72
1720775581,430:   -335  68  72
1720775581,430:   -614  68  72
1720775581,430:    252  68  72
1720775581,430:   1110  68  72
1720775581,430:    841  68  72
1720775581,461:   -166  68  72
1720775581,461:   -529  68  72
1720775581,461:    241  68  72
1720775581,461:   1089  68  72
1720775581,461:    844  68  72
1720775581,461:   -223  68  72
1720775581,461:   -715  68  72
1720775581,461:      6  68  72
1720775581,461:    977  68  72
1720775581,461:    934  68  72
1720775581,461:    -24  68  72
1720775581,461:   -563  68  72
1720775581,461:     70  68  72
1720775581,461:   1026  68  72
1720775581,461:   1007  68  72
1720775581,461:    -11  68  72
1720775581,461:   -701  68  72
1720775581,461:   -165  68  72
1720775581,461:    865  68  72
1720775581,461:   1032  68  72
1720775581,461:    139  68  72
1720775581,461:   -582  68  72
1720775581,492:   -135  68  72
1720775581,492:    875  68  72
1720775581,492:   1085  68  72
1720775581,492:    171  68  72
1720775581,492:   -676  68  72
1720775581,492:   -340  68  72
1720775581,492:    722  68  72
1720775581,492:   1116  68  72
1720775581,492:    355  68  72
1720775581,492:   -503  68  72
1720775581,492:   -277  68  72
1720775581,492:    718  68  72
1720775581,492:   1128  68  72
1720775581,492:    363  68  72
1720775581,492:   -591  68  72
1720775581,524:   -471  68  72
1720775581,524:    548  68  72
1720775581,524:   1116  68  72
1720775581,524:    501  68  72
1720775581,524:   -444  68  72
1720775581,524:   -415  68  72
1720775581,524:    554  68  72
1720775581,524:   1157  68  72
1720775581,524:    554  68  72
1720775581,524:   -495  68  72
1720775581,524:   -612  68  72
1720775581,524:    332  68  72
1720775581,524:   1076  68  72
1720775581,524:    647  68  72
1720775581,524:   -356  68  72
1720775581,556:   -557  68  72
1720775581,556:    314  68  72
1720775581,556:   1070  68  72
1720775581,556:    667  68  72
1720775581,556:   -408  68  72
1720775581,556:   -737  68  72
1720775581,556:    103  68  72
1720775581,556:    998  68  72
1720775581,587:    787  68  72
1720775581,587:   -208  68  72
1720775581,587:   -611  68  72
1720775581,587:    132  68  72
1720775581,587:   1010  68  72
1720775581,587:    818  68  72
1720775581,587:   -238  68  72
1720775581,587:   -776  68  72
1720775581,587:   -100  68  72
1720775581,587:    873  68  72
1720775581,587:    861  68  72
1720775581,587:    -95  68  72
1720775581,587:   -673  68  72
1720775581,587:    -68  68  72
1720775581,587:    915  68  72
1720775581,587:    954  68  72
1720775581,587:    -41  68  72
1720775581,587:   -766  68  72
1720775581,587:   -269  68  72
1720775581,587:    776  68  72
1720775581,587:    996  68  72
1720775581,587:    125  68  72
1720775581,619:   -635  68  72
1720775581,619:   -245  68  72
1720775581,619:    758  68  72
1720775581,619:   1009  68  72
1720775581,619:    122  68  72
1720775581,619:   -753  68  72
1720775581,619:   -464  68  72
1720775581,619:    588  68  72
1720775581,619:   1016  68  72
1720775581,619:    279  68  72
1720775581,619:   -596  68  72
1720775581,619:   -397  68  72
1720775581,619:    613  68  72
1720775581,619:   1072  68  72
1720775581,619:    332  68  72
1720775581,650:   -655  68  72
1720775581,650:   -585  68  72
1720775581,650:    431  68  72
1720775581,650:   1043  68  72
1720775581,650:    459  68  72
1720775581,650:   -512  68  72
1720775581,650:   -537  68  72
1720775581,650:    416  68  72
1720775581,650:   1053  68  72
1720775581,650:    482  68  72
1720775581,650:   -585  68  72
1720775581,650:   -744  68  72
1720775581,650:    199  68  72
1720775581,650:   1000  68  72
1720775581,650:    630  68  72
1720775581,681:   -368  68  72
1720775581,681:   -607  68  72
1720775581,681:    245  68  72
1720775581,681:   1035  68  72
1720775581,681:    676  68  72
1720775581,681:   -400  68  72
1720775581,681:   -774  68  72
1720775581,681:     35  68  72
1720775581,681:    946  68  72
1720775581,681:    766  68  72
1720775581,681:   -232  68  72
1720775581,681:   -670  68  72
1720775581,681:     60  68  72
1720775581,681:    974  68  72
1720775581,681:    831  68  72
1720775581,710:   -224  68  72
1720775581,710:   -805  68  72
1720775581,710:   -156  68  72
1720775581,710:    850  68  72
1720775581,710:    899  68  72
1720775581,710:    -31  68  72
1720775581,710:   -640  68  72
1720775581,710:    -75  68  72
1720775581,710:    906  68  72
1720775581,710:    972  68  72
1720775581,710:    -16  68  72
1720775581,710:   -774  68  72
1720775581,710:   -314  68  72
1720775581,710:    732  68  72
1720775581,710:    982  68  72
1720775581,742:    125  68  72
1720775581,742:   -663  68  72
1720775581,742:   -304  68  72
1720775581,742:    708  68  72
1720775581,742:   1003  68  72
1720775581,742:    146  68  72
1720775581,742:   -748  68  72
1720775581,742:   -498  68  72
1720775581,742:    551  68  72
1720775581,742:   1018  68  72
1720775581,742:    316  68  72
1720775581,742:   -572  68  72
1720775581,742:   -412  68  72
1720775581,742:    582  68  72
1720775581,742:   1064  68  72
1720775581,742:    343  68  72
1720775581,742:   -666  68  72
1720775581,742:   -638  68  72
1720775581,742:    369  68  72
1720775581,742:   1019  68  72
1720775581,742:    471  68  72
1720775581,742:   -510  68  72
1720775581,742:   -573  68  72
1720775581,773:    368  68  72
1720775581,773:   1039  68  72
1720775581,773:    507  68  72
1720775581,773:   -561  68  72
1720775581,773:   -760  68  72
1720775581,773:    154  68  72
1720775581,773:    958  68  72
1720775581,805:    601  68  72
1720775581,805:   -411  68  72
1720775581,805:   -685  68  72
1720775581,805:    157  68  72
1720775581,805:    978  68  72
1720775581,805:    658  68  72
1720775581,805:   -416  68  72
1720775581,805:   -827  68  72
1720775581,805:    -42  68  72
1720775581,805:    892  68  72
1720775581,805:    762  68  72
1720775581,805:   -212  68  72
1720775581,805:   -673  68  72
1720775581,805:     22  68  72
1720775581,805:    931  68  72
1720775581,837:    812  68  72
1720775581,837:   -226  68  72
1720775581,837:   -820  68  72
1720775581,837:   -196  68  72
1720775581,837:    805  68  72
1720775581,837:    868  68  72
1720775581,837:    -59  68  72
1720775581,837:   -689  68  72
1720775581,837:   -141  68  72
1720775581,837:    861  68  72
1720775581,837:    976  68  72
1720775581,837:     20  68  72
1720775581,837:   -753  68  72
1720775581,837:   -329  68  72
1720775581,837:    706  68  72
1720775581,837:    984  68  72
1720775581,837:    162  68  72
1720775581,837:   -625  68  72
1720775581,837:   -300  68  72
1720775581,837:    679  68  72
1720775581,837:    966  68  72
1720775581,837:    117  68  72
1720775581,837:   -779  68  72
1720775581,869:   -548  68  72
1720775581,869:    482  68  72
1720775581,869:    944  68  72
1720775581,869:    245  68  72
1720775581,869:   -648  68  72
1720775581,869:   -502  68  72
1720775581,869:    484  68  72
1720775581,869:    976  68  72
1720775581,869:    277  68  72
1720775581,869:   -721  68  72
1720775581,869:   -701  68  72
1720775581,869:    291  68  72
1720775581,869:    936  68  72
1720775581,869:    396  68  72
1720775581,869:   -580  68  72
1720775581,900:   -651  68  72
1720775581,900:    273  68  72
1720775581,900:    935  68  72
1720775581,900:    417  68  72
1720775581,900:   -621  68  72
1720775581,900:   -782  68  72
1720775581,900:    173  68  72
1720775581,900:   1029  68  72
1720775581,900:    745  68  72
1720775581,900:   -194  68  72
1720775581,900:   -453  68  72
1720775581,900:    276  68  72
1720775581,900:    840  68  72
1720775581,900:    171  68  72
1720775581,900:  -1283  68  72
1720775581,931:  -2070  68  72
1720775581,931:  -1649  68  72
1720775581,931:  -1009  68  72
1720775581,931:  -1239  68  72
1720775581,931:  -1991  68  72
1720775581,931:  -1856  68  72
1720775581,931:   -220  68  72
1720775581,931:   1935  68  72
1720775581,931:   3365  68  72
1720775581,931:   4154  68  72
1720775581,931:   5533  68  72
1720775581,931:   8073  68  72
1720775581,931:  10780  68  72
1720775581,931:  12329  68  72
1720775581,931:  12719  68  72
1720775581,931:  13197  68  72
1720775581,931:  14490  68  72
1720775581,931:  15731  68  72
1720775581,931:  15586  68  72
1720775581,931:  13961  68  72
1720775581,931:  12120  68  72
1720775581,931:  10967  68  72
1720775581,994:   9866  66  70
1720775581,994:   7657  66  70
1720775581,994:   4399  66  70
1720775581,994:   1541  66  70
1720775581,994:    182  66  70
1720775581,994:   -302  66  70
1720775581,994:  -1322  66  70
1720775581,994:  -3154  66  70
1720775581,994:  -4487  66  70
1720775581,994:  -4131  66  70
1720775581,994:  -2681  66  70
1720775581,994:  -1852  66  70
1720775581,994:  -2428  66  70
1720775581,994:  -3418  66  70
1720775581,994:  -3462  66  70
1720775581,994:  -2668  66  70
1720775581,994:  -2361  66  70
1720775581,994:  -3257  66  70
1720775581,994:  -4458  66  70
1720775581,994:  -4599  66  70
1720775581,994:  -3667  66  70
1720775581,994:  -2959  66  70
1720775581,994:  -3339  66  70
1720775581,994:  -4119  66  70
1720775581,994:  -4003  66  70
1720775581,994:  -2918  66  70
1720775581,994:  -2144  66  70
1720775581,994:  -2641  66  70
1720775582,025:  -3769  66  70
1720775582,025:  -4070  66  70
1720775582,025:  -3189  66  70
1720775582,025:  -2276  66  70
1720775582,025:  -2422  66  70
1720775582,025:  -3227  66  70
1720775582,025:  -3367  66  70
1720775582,025:  -2446  66  70
1720775582,025:  -1564  66  70
1720775582,025:  -1846  66  70
1720775582,025:  -2930  66  70
1720775582,025:  -3373  66  70
1720775582,025:  -2567  66  70
1720775582,025:  -1517  66  70
1720775582,025:  -1487  66  70
1720775582,057:  -2349  66  70
1720775582,057:  -2770  66  70
1720775582,057:  -2043  66  70
1720775582,057:  -1057  66  70
1720775582,057:  -1080  66  70
1720775582,057:  -2075  66  70
1720775582,057:  -2692  66  70
1720775582,057:  -2077  66  70
1720775582,057:  -1001  66  70
1720775582,057:   -809  66  70
1720775582,057:  -1644  66  70
1720775582,057:  -2270  66  70
1720775582,057:  -1749  66  70
1720775582,057:   -730  66  70
1720775582,057:   -545  66  70
1720775582,089:  -1441  66  70
1720775582,089:  -2207  66  70
1720775582,089:  -1790  66  70
1720775582,089:   -714  66  70
1720775582,089:   -351  66  70
1720775582,089:  -1109  66  70
1720775582,089:  -1893  66  70
1720775582,089:  -1576  66  70
1720775582,089:   -546  66  70
1720775582,089:   -151  66  70
1720775582,089:   -914  66  70
1720775582,089:  -1807  66  70
1720775582,089:  -1614  66  70
1720775582,089:   -573  66  70
1720775582,089:    -28  66  70
1720775582,121:   -647  66  70
1720775582,121:  -1540  66  70
1720775582,121:  -1454  66  70
1720775582,121:   -487  66  70
1720775582,121:     70  66  70
1720775582,121:   -540  66  70
1720775582,121:  -1516  66  70
1720775582,121:  -1538  66  70
1720775582,121:   -563  66  70
1720775582,121:    148  66  70
1720775582,121:   -295  66  70
1720775582,121:  -1239  66  70
1720775582,121:  -1360  66  70
1720775582,121:   -477  66  70
1720775582,121:    221  66  70
1720775582,121:   -224  66  70
1720775582,121:  -1255  66  70
1720775582,121:  -1496  66  70
1720775582,121:   -617  66  70
1720775582,121:    245  66  70
1720775582,121:      0  66  70
1720775582,121:   -958  66  70
1720775582,153:  -1279  66  70
1720775582,153:   -492  66  70
1720775582,153:    364  66  70
1720775582,153:    145  66  70
1720775582,153:   -881  66  70
1720775582,153:  -1344  66  70
