timestamp: ADC HeartRate4sAverage HeartRate30sAverage
1720043933,446:    -99  82  78
1720043933,446:   -645  82  78
1720043933,446:    431  82  78
1720043933,446:   1832  82  78
1720043933,446:   1691  82  78
1720043933,446:     80  82  78
1720043933,446:  -1014  82  78
1720043933,446:   -322  82  78
1720043933,446:   1114  82  78
1720043933,446:   1372  82  78
1720043933,446:    223  82  78
1720043933,446:   -586  82  78
1720043933,446:    230  82  78
1720043933,446:   1711  82  78
1720043933,446:   1881  82  78
1720043933,477:    385  82  78
1720043933,477:   -960  82  78
1720043933,477:   -568  82  78
1720043933,477:    890  82  78
1720043933,477:   1441  82  78
1720043933,477:    442  82  78
1720043933,477:   -570  82  78
1720043933,477:    -34  82  78
1720043933,477:   1478  82  78
1720043933,477:   1975  82  78
1720043933,477:    683  82  78
1720043933,477:   -840  82  78
1720043933,477:   -768  82  78
1720043933,477:    632  82  78
1720043933,477:   1430  82  78
1720043933,507:    614  82  78
1720043933,507:   -549  82  78
1720043933,507:   -292  82  78
1720043933,507:   1205  82  78
1720043933,507:   2000  82  78
1720043933,507:    940  82  78
1720043933,507:   -727  82  78
1720043933,507:   -981  82  78
1720043933,507:    336  82  78
1720043933,507:   1406  82  78
1720043933,507:    862  82  78
1720043933,507:   -384  82  78
1720043933,507:   -432  82  78
1720043933,507:    971  82  78
1720043933,507:   2045  82  78
1720043933,537:   1311  82  78
1720043933,537:   -384  82  78
1720043933,537:   -950  82  78
1720043933,537:    190  82  78
1720043933,537:   1436  82  78
1720043933,537:   1163  82  78
1720043933,537:   -101  82  78
1720043933,537:   -434  82  78
1720043933,537:    809  82  78
1720043933,537:   2080  82  78
1720043933,537:   1658  82  78
1720043933,537:    -23  82  78
1720043933,537:   -888  82  78
1720043933,537:     31  82  78
1720043933,537:   1413  82  78
1720043933,568:   1439  82  78
1720043933,568:    221  82  78
1720043933,568:   -381  82  78
1720043933,568:    642  82  78
1720043933,568:   2046  82  78
1720043933,568:   1945  82  78
1720043933,568:    342  82  78
1720043933,568:   -801  82  78
1720043933,568:   -164  82  78
1720043933,568:   1270  82  78
1720043933,568:   1573  82  78
1720043933,568:    452  82  78
1720043933,568:   -382  82  78
1720043933,568:    396  82  78
1720043933,568:   1886  82  78
1720043933,600:   2111  82  78
1720043933,600:    649  82  78
1720043933,600:   -723  82  78
1720043933,600:   -384  82  78
1720043933,600:   1057  82  78
1720043933,600:   1642  82  78
1720043933,600:    675  82  78
1720043933,600:   -348  82  78
1720043933,600:    159  82  78
1720043933,600:   1681  82  78
1720043933,600:   2232  82  78
1720043933,600:    984  82  78
1720043933,600:   -554  82  78
1720043933,600:   -526  82  78
1720043933,600:    865  82  78
1720043933,630:   1714  82  78
1720043933,630:    956  82  78
1720043933,630:   -204  82  78
1720043933,630:      9  82  78
1720043933,630:   1479  82  78
1720043933,630:   2301  82  78
1720043933,630:   1291  82  78
1720043933,630:   -364  82  78
1720043933,630:   -656  82  78
1720043933,630:    624  82  78
1720043933,630:   1694  82  78
1720043933,630:   1173  82  78
1720043933,630:    -73  82  78
1720043933,630:   -151  82  78
1720043933,630:   1226  82  78
1720043933,630:   2308  82  78
1720043933,630:   1596  82  78
1720043933,630:   -106  82  78
1720043933,630:   -715  82  78
1720043933,630:    388  82  78
1720043933,630:   1634  82  78
1720043933,630:   1382  82  78
1720043933,661:    114  82  78
1720043933,661:   -254  82  78
1720043933,661:    959  82  78
1720043933,661:   2236  82  78
1720043933,661:   1833  82  78
1720043933,661:    143  82  78
1720043933,661:   -767  82  78
1720043933,661:    116  82  78
1720043933,661:   1498  82  78
1720043933,661:   1540  82  78
1720043933,661:    309  82  78
1720043933,661:   -340  82  78
1720043933,661:    651  82  78
1720043933,661:   2071  82  78
1720043933,661:   2006  82  78
1720043933,693:    404  82  78
1720043933,693:   -784  82  78
1720043933,693:   -189  82  78
1720043933,693:   1249  82  78
1720043933,693:   1584  82  78
1720043933,693:    463  82  78
1720043933,693:   -417  82  78
1720043933,693:    320  82  78
1720043933,693:   1826  82  78
1720043933,693:   2106  82  78
1720043933,693:    672  82  78
1720043933,693:   -733  82  78
1720043933,693:   -441  82  78
1720043933,693:   1000  82  78
1720043933,693:   1629  82  78
1720043933,723:    685  82  78
1720043933,723:   -378  82  78
1720043933,723:     64  82  78
1720043933,723:   1562  82  78
1720043933,723:   2142  82  78
1720043933,723:    922  82  78
1720043933,723:   -640  82  78
1720043933,723:   -667  82  78
1720043933,723:    702  82  78
1720043933,723:   1577  82  78
1720043933,723:    849  82  78
1720043933,723:   -326  82  78
1720043933,723:   -157  82  78
1720043933,723:   1298  82  78
1720043933,723:   2161  82  78
1720043933,753:   1201  82  78
1720043933,753:   -456  82  78
1720043933,753:   -794  82  78
1720043933,753:    454  82  78
1720043933,753:   1547  82  78
1720043933,753:   1072  82  78
1720043933,753:   -163  82  78
1720043933,753:   -279  82  78
1720043933,753:   1062  82  78
1720043933,753:   2152  82  78
1720043933,753:   1469  82  78
1720043933,753:   -236  82  78
1720043933,753:   -896  82  78
1720043933,753:    155  82  78
1720043933,753:   1395  82  78
1720043933,784:   1174  82  78
1720043933,784:    -75  82  78
1720043933,784:   -457  82  78
1720043933,784:    738  82  78
1720043933,784:   2032  82  78
1720043933,784:   1670  82  78
1720043933,784:      1  82  78
1720043933,784:   -926  82  78
1720043933,784:    -72  82  78
1720043933,784:   1310  82  78
1720043933,784:   1380  82  78
1720043933,784:    171  82  78
1720043933,784:   -479  82  78
1720043933,784:    508  82  78
1720043933,784:   1952  82  78
1720043933,784:   1931  82  78
1720043933,784:    359  82  78
1720043933,784:   -836  82  78
1720043933,784:   -261  82  78
1720043933,784:   1179  82  78
1720043933,784:   1545  82  78
1720043933,784:    457  82  78
1720043933,784:   -416  82  78
1720043933,814:    308  82  78
1720043933,814:   1807  82  78
1720043933,814:   2098  82  78
1720043933,814:    681  82  78
1720043933,814:   -719  82  78
1720043933,814:   -433  82  78
1720043933,814:   1009  82  78
1720043933,845:   1650  82  78
1720043933,845:    721  82  78
1720043933,845:   -333  82  78
1720043933,845:    118  82  78
1720043933,845:   1630  82  78
1720043933,845:   2227  82  78
1720043933,845:   1011  82  78
1720043933,845:   -566  82  78
1720043933,845:   -613  82  78
1720043933,845:    745  82  78
1720043933,845:   1618  82  78
1720043933,845:    887  82  78
1720043933,845:   -292  82  78
1720043933,845:   -117  82  78
1720043933,845:   1366  82  78
1720043933,876:   2267  82  78
1720043933,876:   1332  82  78
1720043933,876:   -319  82  78
1720043933,876:   -654  82  78
1720043933,876:    610  82  78
1720043933,876:   1724  82  78
1720043933,876:   1251  82  78
1720043933,876:     -9  82  78
1720043933,876:   -151  82  78
1720043933,876:   1187  82  78
1720043933,876:   2296  82  78
1720043933,876:   1626  82  78
1720043933,876:    -94  82  78
1720043933,876:   -776  82  78
1720043933,876:    275  82  78
1720043933,876:   1541  82  78
1720043933,876:   1336  82  78
1720043933,876:     66  82  78
1720043933,876:   -363  82  78
1720043933,876:    801  82  78
1720043933,876:   2095  82  78
1720043933,876:   1743  82  78
1720043933,876:     55  82  78
1720043933,907:   -919  82  78
1720043933,907:   -100  82  78
1720043933,907:   1280  82  78
1720043933,907:   1362  82  78
1720043933,907:    146  82  78
1720043933,907:   -531  82  78
1720043933,907:    437  82  78
1720043933,939:   1888  82  78
1720043933,939:   1882  82  78
1720043933,939:    296  82  78
1720043933,939:   -934  82  78
1720043933,939:   -381  82  78
1720043933,939:   1070  82  78
1720043933,939:   1453  82  78
1720043933,939:    351  82  78
1720043933,939:   -559  82  78
1720043933,939:    153  82  78
1720043933,939:   1686  82  78
1720043933,939:   2024  82  78
1720043933,939:    615  82  78
1720043933,939:   -817  82  78
1720043933,939:   -553  82  78
1720043933,970:    910  82  78
1720043933,970:   1587  82  78
1720043933,970:    658  82  78
1720043933,970:   -438  82  78
1720043933,970:    -16  82  78
1720043933,970:   1519  82  78
1720043933,970:   2164  82  78
1720043933,970:    957  82  78
1720043933,970:   -660  82  78
1720043933,970:   -736  82  78
1720043933,970:    657  82  78
1720043933,970:   1611  82  78
1720043933,970:    936  82  78
1720043933,970:   -252  82  78
1720043933,970:   -101  82  78
1720043934,001:   1396  82  78
1720043934,001:   2326  82  78
1720043934,001:   1368  82  78
1720043934,001:   -377  82  78
1720043934,001:   -805  82  78
1720043934,001:    423  82  78
1720043934,001:   1517  82  78
1720043934,001:    951  82  78
1720043934,001:   -482  82  78
1720043934,001:   -739  82  78
1720043934,001:    703  82  78
1720043934,001:   2161  82  78
1720043934,001:   1996  82  78
1720043934,001:    913  82  78
1720043934,001:   1126  82  78
1720043934,001:   3440  82  78
1720043934,001:   6203  82  78
1720043934,001:   7395  82  78
1720043934,001:   7179  82  78
1720043934,001:   7528  82  78
1720043934,001:   9392  82  78
1720043934,001:  11252  82  78
1720043934,001:  10918  82  78
1720043934,031:   8311  82  80
1720043934,031:   5588  82  80
1720043934,031:   4425  82  80
1720043934,031:   4174  82  80
1720043934,031:   3075  82  80
1720043934,031:    817  82  80
1720043934,031:  -1005  82  80
1720043934,031:  -1132  82  80
1720043934,031:   -356  82  80
1720043934,031:   -435  82  80
1720043934,031:  -1664  82  80
1720043934,031:  -2441  82  80
1720043934,031:  -1558  82  80
1720043934,031:     50  82  80
1720043934,031:    442  82  80
1720043934,061:   -773  82  80
1720043934,061:  -1860  82  80
1720043934,061:  -1299  82  80
1720043934,061:    165  82  80
1720043934,061:    476  82  80
1720043934,061:  -1012  82  80
1720043934,061:  -2590  82  80
1720043934,061:  -2443  82  80
1720043934,061:   -975  82  80
1720043934,061:   -186  82  80
1720043934,061:  -1005  82  80
1720043934,061:  -2065  82  80
1720043934,093:  -1658  82  80
1720043934,093:   -122  82  80
1720043934,093:    553  82  80
1720043934,093:   -638  82  80
1720043934,093:  -2276  82  80
1720043934,093:  -2359  82  80
1720043934,093:   -891  82  80
1720043934,093:    204  82  80
1720043934,093:   -364  82  80
1720043934,093:  -1546  82  80
1720043934,093:  -1453  82  80
1720043934,093:     20  82  80
1720043934,093:   1014  82  80
1720043934,093:    153  82  80
1720043934,093:  -1542  82  80
1720043934,125:  -1961  82  80
1720043934,125:   -673  82  80
1720043934,125:    597  82  80
1720043934,125:    271  82  80
1720043934,125:   -984  82  80
1720043934,125:  -1209  82  80
1720043934,125:    122  82  80
1720043934,125:   1355  82  80
1720043934,125:    819  82  80
1720043934,125:   -895  82  80
1720043934,125:  -1663  82  80
1720043934,125:   -630  82  80
1720043934,125:    751  82  80
1720043934,125:    686  82  80
1720043934,125:   -566  82  80
1720043934,156:  -1079  82  80
1720043934,156:     56  82  80
1720043934,156:   1463  82  80
1720043934,156:   1269  82  80
1720043934,156:   -373  82  80
1720043934,156:  -1421  82  80
1720043934,156:   -653  82  80
1720043934,156:    806  82  80
1720043934,156:   1028  82  80
1720043934,156:   -141  82  80
1720043934,156:   -896  82  80
1720043934,156:      1  82  80
1720043934,156:   1503  82  80
1720043934,156:   1621  82  80
1720043934,156:     86  82  80
1720043934,156:  -1215  82  80
1720043934,156:   -741  82  80
1720043934,156:    743  82  80
1720043934,156:   1242  82  80
1720043934,156:    197  82  80
1720043934,156:   -774  82  80
1720043934,156:   -146  82  80
1720043934,156:   1408  82  80
1720043934,188:   1858  82  80
1720043934,188:    511  82  80
1720043934,188:   -986  82  80
1720043934,188:   -823  82  80
1720043934,188:    637  82  80
1720043934,188:   1415  82  80
1720043934,188:    561  82  80
1720043934,188:   -581  82  80
1720043934,188:   -254  82  80
1720043934,188:   1277  82  80
1720043934,188:   2031  82  80
1720043934,188:    917  82  80
1720043934,188:   -737  82  80
1720043934,188:   -929  82  80
1720043934,188:    417  82  80
1720043934,219:   1440  82  80
1720043934,219:    831  82  80
1720043934,219:   -416  82  80
1720043934,219:   -415  82  80
1720043934,219:   1001  82  80
1720043934,219:   2008  82  80
1720043934,219:   1185  82  80
1720043934,219:   -528  82  80
1720043934,219:  -1044  82  80
1720043934,219:    133  82  80
1720043934,219:   1345  82  80
1720043934,219:   1008  82  80
1720043934,219:   -267  82  80
1720043934,219:   -552  82  80
1720043934,219:    720  82  80
1720043934,250:   1942  82  80
1720043934,250:   1430  82  80
1720043934,250:   -286  82  80
1720043934,250:  -1113  82  80
1720043934,250:   -151  82  80
1720043934,250:   1207  82  80
1720043934,250:   1167  82  80
1720043934,250:    -72  82  80
1720043934,250:   -622  82  80
1720043934,250:    462  82  80
1720043934,250:   1868  82  80
1720043934,250:   1725  82  80
1720043934,250:    123  82  80
1720043934,250:   -946  82  80
1720043934,250:   -232  82  80
1720043934,282:   1210  82  80
1720043934,282:   1471  82  80
1720043934,282:    344  82  80
1720043934,282:   -425  82  80
1720043934,282:    416  82  80
1720043934,282:   1893  82  80
1720043934,282:   2047  82  80
1720043934,282:    562  82  80
1720043934,282:   -741  82  80
1720043934,282:   -317  82  80
1720043934,282:   1132  82  80
1720043934,282:   1652  82  80
1720043934,282:    651  82  80
1720043934,282:   -316  82  80
1720043934,282:    273  82  80
1720043934,314:   1795  82  80
1720043934,314:   2256  82  80
1720043934,314:    933  82  80
1720043934,314:   -579  82  80
1720043934,314:   -471  82  80
1720043934,314:    944  82  80
1720043934,314:   1728  82  80
1720043934,314:    906  82  80
1720043934,314:   -232  82  80
1720043934,314:     61  82  80
1720043934,314:   1560  82  80
1720043934,314:   2321  82  80
1720043934,314:   1238  82  80
1720043934,314:   -407  82  80
1720043934,314:   -622  82  80
1720043934,346:    700  82  80
1720043934,346:   1726  82  80
1720043934,346:   1137  82  80
1720043934,346:   -106  82  80
1720043934,346:   -121  82  80
1720043934,346:   1286  82  80
1720043934,346:   2313  82  80
1720043934,346:   1521  82  80
1720043934,346:   -188  82  80
1720043934,346:   -738  82  80
1720043934,346:    400  82  80
1720043934,346:   1604  82  80
1720043934,346:   1288  82  80
1720043934,346:     27  82  80
1720043934,346:   -268  82  80
1720043934,378:    987  82  80
1720043934,378:   2217  82  80
1720043934,378:   1737  82  80
1720043934,378:     41  82  80
1720043934,378:   -797  82  80
1720043934,378:    134  82  80
1720043934,378:   1476  82  80
1720043934,378:   1443  82  80
1720043934,378:    213  82  80
1720043934,378:   -346  82  80
1720043934,378:    715  82  80
1720043934,378:   2100  82  80
1720043934,378:   1941  82  80
1720043934,378:    317  82  80
1720043934,378:   -787  82  80
1720043934,378:   -103  82  80
1720043934,378:   1324  82  80
1720043934,378:   1573  82  80
1720043934,378:    415  82  80
1720043934,378:   -400  82  80
1720043934,378:    414  82  80
1720043934,378:   1897  82  80
1720043934,410:   2075  82  80
1720043934,410:    591  82  80
1720043934,410:   -747  82  80
1720043934,410:   -360  82  80
1720043934,410:   1080  82  80
1720043934,410:   1614  82  80
1720043934,410:    614  82  80
1720043934,410:   -387  82  80
1720043934,410:    155  82  80
1720043934,410:   1656  82  80
1720043934,410:   2131  82  80
1720043934,410:    833  82  80
1720043934,410:   -670  82  80
1720043934,410:   -566  82  80
1720043934,410:    857  82  80
1720043934,442:   1665  82  80
1720043934,442:    863  82  80
1720043934,442:   -278  82  80
1720043934,442:     -2  82  80
1720043934,442:   1495  82  80
1720043934,442:   2277  82  80
1720043934,442:   1212  82  80
1720043934,442:   -446  82  80
1720043934,442:   -697  82  80
1720043934,442:    594  82  80
1720043934,442:   1617  82  80
1720043934,442:   1045  82  80
1720043934,442:   -187  82  80
1720043934,442:   -205  82  80
1720043934,442:   1198  82  80
1720043934,474:   2233  82  80
1720043934,474:   1455  82  80
1720043934,474:   -247  82  80
1720043934,474:   -792  82  80
1720043934,474:    355  82  80
1720043934,474:   1569  82  80
1720043934,474:   1254  82  80
1720043934,474:    -17  82  80
1720043934,474:   -321  82  80
1720043934,474:    941  82  80
1720043934,474:   2189  82  80
1720043934,474:   1716  82  80
1720043934,474:     10  82  80
1720043934,474:   -841  82  80
1720043934,474:     94  82  80
1720043934,505:   1451  82  80
1720043934,505:   1421  82  80
1720043934,505:    172  82  80
1720043934,505:   -408  82  80
1720043934,505:    659  82  80
1720043934,505:   2076  82  80
1720043934,505:   1946  82  80
1720043934,505:    319  82  80
1720043934,505:   -806  82  80
1720043934,505:   -129  82  80
1720043934,505:   1315  82  80
1720043934,505:   1583  82  80
1720043934,505:    422  82  80
1720043934,505:   -410  82  80
1720043934,505:    405  82  80
1720043934,537:   1914  82  80
1720043934,537:   2114  82  80
1720043934,537:    616  82  80
1720043934,537:   -754  82  80
1720043934,537:   -376  82  80
1720043934,537:   1094  82  80
1720043934,537:   1660  82  80
1720043934,537:    649  82  80
1720043934,537:   -391  82  80
1720043934,537:    142  82  80
1720043934,537:   1688  82  80
1720043934,537:   2221  82  80
1720043934,537:    931  82  80
1720043934,537:   -620  82  80
1720043934,537:   -557  82  80
1720043934,567:    882  82  80
1720043934,567:   1734  82  80
1720043934,567:    939  82  80
1720043934,567:   -250  82  80
1720043934,567:    -21  82  80
1720043934,567:   1482  82  80
1720043934,567:   2311  82  80
1720043934,567:   1271  82  80
1720043934,567:   -413  82  80
1720043934,567:   -696  82  80
1720043934,567:    616  82  80
1720043934,567:   1702  82  80
1720043934,567:   1168  82  80
1720043934,567:    -88  82  80
1720043934,567:   -148  82  80
1720043934,599:   1255  82  80
1720043934,599:   2330  82  80
1720043934,599:   1574  82  80
1720043934,599:   -169  82  80
1720043934,599:   -778  82  80
1720043934,599:    348  82  80
1720043934,599:   1597  82  80
1720043934,599:   1316  82  80
1720043934,599:     33  82  80
1720043934,599:   -295  82  80
1720043934,599:    995  82  80
1720043934,599:   2323  82  80
1720043934,599:   1916  82  80
1720043934,599:    200  82  80
1720043934,599:   -703  82  80
1720043934,599:    221  82  80
1720043934,599:   1624  82  80
1720043934,599:   1624  82  80
1720043934,599:    321  82  80
1720043934,599:   -361  82  80
1720043934,599:    656  82  80
1720043934,599:   2112  82  80
1720043934,599:   2035  82  80
1720043934,629:    386  82  80
1720043934,629:   -823  82  80
1720043934,629:   -193  82  80
1720043934,629:   1292  82  80
1720043934,629:   1625  82  80
1720043934,629:    455  82  80
1720043934,629:   -460  82  80
1720043934,629:    292  82  80
1720043934,629:   1822  82  80
1720043934,629:   2072  82  80
1720043934,629:    561  82  80
1720043934,629:   -895  82  80
1720043934,629:   -581  82  80
1720043934,629:    917  82  80
1720043934,629:   1559  82  80
1720043934,660:    570  82  80
1720043934,660:   -527  82  80
1720043934,660:    -49  82  80
1720043934,660:   1521  82  80
1720043934,660:   2133  82  80
1720043934,660:    874  82  80
1720043934,660:   -736  82  80
1720043934,660:   -746  82  80
1720043934,660:    692  82  80
1720043934,660:   1612  82  80
1720043934,660:    860  82  80
1720043934,660:   -366  82  80
1720043934,660:   -195  82  80
1720043934,660:   1320  82  80
1720043934,660:   2231  82  80
1720043934,692:   1250  82  80
1720043934,692:   -463  82  80
1720043934,692:   -812  82  80
1720043934,692:    493  82  80
1720043934,692:   1643  82  80
1720043934,692:   1154  82  80
1720043934,692:   -148  82  80
1720043934,692:   -298  82  80
1720043934,692:   1086  82  80
1720043934,692:   2241  82  80
1720043934,692:   1567  82  80
1720043934,692:   -187  82  80
1720043934,692:   -869  82  80
1720043934,692:    236  82  80
1720043934,692:   1567  82  80
1720043934,724:   1385  82  80
1720043934,724:    105  82  80
1720043934,724:   -306  82  80
1720043934,724:    919  82  80
1720043934,724:   2259  82  80
1720043934,724:   1874  82  80
1720043934,724:    103  82  80
1720043934,724:   -921  82  80
1720043934,724:    -95  82  80
1720043934,724:   1277  82  80
1720043934,724:   1255  82  80
1720043934,724:   -132  82  80
1720043934,724:   -908  82  80
1720043934,724:    158  82  80
1720043934,724:   1911  82  80
1720043934,756:   2362  82  80
1720043934,756:   1427  82  80
1720043934,756:   1160  82  80
1720043934,756:   3024  82  80
1720043934,756:   5947  82  80
1720043934,756:   7656  82  80
1720043934,756:   7569  82  80
1720043934,756:   7445  82  80
1720043934,756:   8839  82  80
1720043934,756:  10827  82  80
1720043934,756:  11010  82  80
1720043934,756:   8557  82  80
1720043934,756:   5365  82  80
1720043934,756:   3714  82  80
1720043934,756:   3603  82  80
1720043934,788:   3117  82  81
1720043934,788:   1168  82  81
1720043934,788:  -1004  82  81
1720043934,788:  -1584  82  81
1720043934,788:   -645  82  81
1720043934,788:    -18  82  81
1720043934,788:   -823  82  81
1720043934,788:  -1955  82  81
1720043934,788:  -1716  82  81
1720043934,788:   -234  82  81
1720043934,788:    656  82  81
1720043934,788:   -153  82  81
1720043934,788:  -1497  82  81
1720043934,788:  -1504  82  81
1720043934,788:   -146  82  81
1720043934,788:    682  82  81
1720043934,788:   -344  82  81
1720043934,788:  -2136  82  81
1720043934,788:  -2592  82  81
1720043934,788:  -1338  82  81
1720043934,788:   -132  82  81
1720043934,788:   -505  82  81
1720043934,818:  -1734  82  81
1720043934,818:  -1899  82  81
1720043934,818:   -573  82  81
1720043934,818:    562  82  81
1720043934,818:    -80  82  81
1720043934,818:  -1792  82  81
1720043934,818:  -2448  82  81
1720043934,818:  -1298  82  81
1720043934,818:    130  82  81
1720043934,818:     73  82  81
1720043934,818:  -1132  82  81
1720043934,818:  -1560  82  81
1720043934,818:   -386  82  81
1720043934,818:    963  82  81
1720043934,818:    677  82  81
1720043934,848:   -975  82  81
1720043934,848:  -1930  82  81
1720043934,848:  -1059  82  81
1720043934,848:    422  82  81
1720043934,848:    600  82  81
1720043934,848:   -582  82  81
1720043934,848:  -1281  82  81
1720043934,848:   -321  82  81
1720043934,880:   1172  82  81
1720043934,880:   1225  82  81
1720043934,880:   -339  82  81
1720043934,880:  -1586  82  81
1720043934,880:  -1029  82  81
1720043934,880:    484  82  81
1720043934,880:    950  82  81
1720043934,880:   -112  82  81
1720043934,880:  -1040  82  81
1720043934,880:   -349  82  81
1720043934,880:   1214  82  81
1720043934,880:   1616  82  81
1720043934,880:    241  82  81
1720043934,880:  -1216  82  81
1720043934,880:   -992  82  81
1720043934,880:    475  82  81
1720043934,880:   1202  82  81
1720043934,880:    314  82  81
1720043934,880:   -790  82  81
1720043934,880:   -402  82  81
1720043934,880:   1136  82  81
1720043934,880:   1839  82  81
1720043934,911:    702  82  81
1720043934,911:   -889  82  81
1720043934,911:   -987  82  81
1720043934,911:    384  82  81
1720043934,911:   1345  82  81
1720043934,911:    684  82  81
1720043934,911:   -524  82  81
1720043934,911:   -430  82  81
1720043934,911:   1019  82  81
1720043934,911:   1965  82  81
1720043934,911:   1074  82  81
1720043934,911:   -614  82  81
1720043934,911:  -1030  82  81
1720043934,911:    208  82  81
1720043934,911:   1384  82  81
1720043934,943:    985  82  81
1720043934,943:   -277  82  81
1720043934,943:   -478  82  81
1720043934,943:    847  82  81
1720043934,943:   2030  82  81
1720043934,943:   1450  82  81
1720043934,943:   -259  82  81
1720043934,943:   -998  82  81
1720043934,943:     22  82  81
1720043934,943:   1338  82  81
1720043934,943:   1209  82  81
1720043934,943:    -50  82  81
1720043934,943:   -536  82  81
1720043934,943:    591  82  81
1720043934,943:   1930  82  81
1720043934,974:   1653  82  81
1720043934,974:    -19  82  81
1720043934,974:  -1047  82  81
1720043934,974:   -271  82  81
1720043934,974:   1144  82  81
1720043934,974:   1299  82  81
1720043934,974:     97  82  81
1720043934,974:   -649  82  81
1720043934,974:    251  82  81
1720043934,974:   1715  82  81
1720043934,974:   1781  82  81
1720043934,974:    232  82  81
1720043934,974:  -1040  82  81
1720043934,974:   -545  82  81
1720043934,974:    914  82  81
1720043935,006:   1366  82  81
1720043935,006:    315  82  81
1720043935,006:   -611  82  81
1720043935,006:     61  82  81
1720043935,006:   1604  82  81
1720043935,006:   2003  82  81
1720043935,006:    631  82  81
1720043935,006:   -836  82  81
1720043935,006:   -636  82  81
1720043935,006:    810  82  81
1720043935,006:   1532  82  81
1720043935,006:    644  82  81
1720043935,006:   -471  82  81
1720043935,006:    -99  82  81
1720043935,006:   1432  82  81
1720043935,006:   2137  82  81
1720043935,006:    992  82  81
1720043935,006:   -624  82  81
1720043935,006:   -742  82  81
1720043935,006:    633  82  81
1720043935,006:   1618  82  81
1720043935,006:    965  82  81
1720043935,006:   -269  82  81
1720043935,038:   -209  82  81
1720043935,038:   1236  82  81
1720043935,038:   2211  82  81
1720043935,038:   1345  82  81
1720043935,038:   -353  82  81
1720043935,038:   -801  82  81
1720043935,038:    422  82  81
1720043935,038:   1616  82  81
1720043935,038:   1239  82  81
1720043935,038:    -26  82  81
1720043935,038:   -245  82  81
1720043935,038:   1071  82  81
1720043935,038:   2268  82  81
1720043935,038:   1699  82  81
1720043935,070:    -28  82  81
1720043935,070:   -804  82  81
1720043935,070:    199  82  81
1720043935,070:   1529  82  81
1720043935,070:   1420  82  81
1720043935,070:    155  82  81
1720043935,070:   -347  82  81
1720043935,070:    789  82  81
1720043935,070:   2173  82  81
1720043935,070:   1943  82  81
1720043935,070:    276  82  81
1720043935,070:   -781  82  81
1720043935,070:    -17  82  81
1720043935,102:   1423  82  81
1720043935,102:   1610  82  81
1720043935,102:    404  82  81
1720043935,102:   -372  82  81
1720043935,102:    523  82  81
1720043935,102:   2031  82  81
1720043935,102:   2146  82  81
1720043935,102:    589  82  81
1720043935,102:   -735  82  81
1720043935,102:   -266  82  81
1720043935,102:   1229  82  81
1720043935,102:   1730  82  81
1720043935,102:    659  82  81
1720043935,102:   -354  82  81
1720043935,102:    252  82  81
1720043935,133:   1810  82  81
1720043935,133:   2268  82  81
1720043935,133:    906  82  81
1720043935,133:   -623  82  81
1720043935,133:   -484  82  81
1720043935,133:    973  82  81
1720043935,133:   1752  82  81
1720043935,133:    880  82  81
1720043935,133:   -286  82  81
1720043935,133:     29  82  81
1720043935,133:   1564  82  81
1720043935,133:   2319  82  81
1720043935,133:   1191  82  81
1720043935,133:   -476  82  81
1720043935,133:   -658  82  81
1720043935,164:    709  82  81
1720043935,164:   1734  82  81
1720043935,164:   1101  82  81
1720043935,164:   -165  82  81
1720043935,164:   -145  82  81
1720043935,164:   1314  82  81
1720043935,164:   2341  82  81
1720043935,164:   1494  82  81
1720043935,164:   -259  82  81
1720043935,164:   -783  82  81
1720043935,164:    418  82  81
1720043935,164:   1644  82  81
1720043935,164:   1283  82  81
1720043935,164:    -30  82  81
1720043935,164:   -318  82  81
1720043935,164:    989  82  81
1720043935,164:   2242  82  81
1720043935,164:   1719  82  81
1720043935,164:    -33  82  81
1720043935,164:   -866  82  81
1720043935,164:    131  82  81
1720043935,164:   1523  82  81
1720043935,196:   1470  82  81
1720043935,196:    184  82  81
1720043935,196:   -387  82  81
1720043935,196:    724  82  81
1720043935,196:   2159  82  81
1720043935,196:   1992  82  81
1720043935,196:    314  82  81
1720043935,196:   -817  82  81
1720043935,196:   -104  82  81
1720043935,196:   1360  82  81
1720043935,196:   1598  82  81
1720043935,196:    390  82  81
1720043935,196:   -449  82  81
1720043935,196:    405  82  81
1720043935,196:   1950  82  81
1720043935,228:   2139  82  81
1720043935,228:    607  82  81
1720043935,228:   -773  82  81
1720043935,228:   -367  82  81
1720043935,228:   1134  82  81
1720043935,228:   1697  82  81
1720043935,228:    657  82  81
1720043935,228:   -398  82  81
1720043935,228:    145  82  81
1720043935,228:   1696  82  81
1720043935,228:   2203  82  81
1720043935,228:    871  82  81
1720043935,228:   -693  82  81
1720043935,228:   -604  82  81
1720043935,228:    862  82  81
1720043935,259:   1707  82  81
1720043935,259:    878  82  81
1720043935,259:   -325  82  81
1720043935,259:    -69  82  81
1720043935,259:   1473  82  81
1720043935,259:   2307  82  81
1720043935,259:   1238  82  81
1720043935,259:   -464  82  81
1720043935,259:   -729  82  81
1720043935,259:    611  82  81
1720043935,259:   1693  82  81
1720043935,259:   1120  82  81
1720043935,259:   -168  82  81
1720043935,259:   -222  82  81
1720043935,259:   1211  82  81
1720043935,291:   2302  82  81
1720043935,291:   1533  82  81
1720043935,291:   -218  82  81
1720043935,291:   -808  82  81
1720043935,291:    354  82  81
1720043935,291:   1622  82  81
1720043935,291:   1326  82  81
1720043935,291:     11  82  81
1720043935,291:   -346  82  81
1720043935,291:    919  82  81
1720043935,291:   2217  82  81
1720043935,291:   1776  82  81
1720043935,291:     40  82  81
1720043935,291:   -863  82  81
1720043935,291:     68  82  81
1720043935,322:   1478  82  81
1720043935,322:   1495  82  81
1720043935,322:    232  82  81
1720043935,322:   -397  82  81
1720043935,322:    651  82  81
1720043935,322:   2103  82  81
1720043935,322:   2006  82  81
1720043935,322:    355  82  81
1720043935,322:   -829  82  81
1720043935,322:   -180  82  81
1720043935,322:   1296  82  81
1720043935,322:   1608  82  81
1720043935,322:    442  82  81
1720043935,322:   -431  82  81
1720043935,322:    373  82  81
1720043935,354:   1937  82  81
1720043935,354:   2210  82  81
1720043935,354:    738  82  81
1720043935,354:   -660  82  81
1720043935,354:   -298  82  81
1720043935,354:   1211  82  81
1720043935,354:   1837  82  81
1720043935,354:    841  82  81
1720043935,354:   -244  82  81
1720043935,354:    237  82  81
1720043935,354:   1775  82  81
1720043935,354:   2329  82  81
1720043935,354:   1031  82  81
1720043935,354:   -578  82  81
1720043935,354:   -576  82  81
1720043935,386:    846  82  81
1720043935,386:   1725  82  81
1720043935,386:    942  82  81
1720043935,386:   -280  82  81
1720043935,386:   -101  82  81
1720043935,386:   1389  82  81
1720043935,386:   2246  82  81
1720043935,386:   1224  82  81
1720043935,386:   -489  82  81
1720043935,386:   -828  82  81
1720043935,386:    453  82  81
1720043935,386:   1552  82  81
1720043935,386:   1036  82  81
1720043935,386:   -239  82  81
1720043935,386:   -344  82  81
1720043935,417:   1041  82  81
1720043935,417:   2151  82  81
1720043935,417:   1442  82  81
1720043935,417:   -288  82  81
1720043935,417:   -920  82  81
1720043935,417:    200  82  81
1720043935,417:   1486  82  81
1720043935,417:   1249  82  81
1720043935,417:    -44  82  81
1720043935,417:   -443  82  81
1720043935,417:    772  82  81
1720043935,417:   2079  82  81
1720043935,417:   1692  82  81
1720043935,417:    -17  82  81
1720043935,417:   -952  82  81
1720043935,448:    -63  82  81
1720043935,448:   1354  82  81
1720043935,448:   1424  82  81
1720043935,448:    193  82  81
1720043935,448:   -467  82  81
1720043935,448:    531  82  81
1720043935,448:   1974  82  81
1720043935,448:   1919  82  81
1720043935,448:    300  82  81
1720043935,448:   -908  82  81
1720043935,448:   -307  82  81
1720043935,448:   1157  82  81
1720043935,448:   1510  82  81
1720043935,448:    395  82  81
1720043935,448:   -465  82  81
1720043935,448:    321  82  81
1720043935,448:   1885  82  81
1720043935,448:   2189  82  81
1720043935,448:    727  82  81
1720043935,448:   -727  82  81
1720043935,448:   -462  82  81
1720043935,448:    979  82  81
1720043935,448:   1586  82  81
1720043935,480:    554  82  81
1720043935,480:   -654  82  81
1720043935,480:   -344  82  81
1720043935,480:   1111  82  81
1720043935,480:   1785  82  81
1720043935,480:    796  82  81
1720043935,480:   -373  82  81
1720043935,480:    237  82  81
1720043935,480:   2579  82  81
1720043935,480:   4748  82  81
1720043935,480:   5448  82  81
1720043935,480:   5572  82  81
1720043935,480:   6766  82  81
1720043935,480:   9016  82  81
1720043935,480:  10526  82  81
1720043935,512:   9958  81  82
1720043935,512:   8133  81  82
1720043935,512:   6831  81  82
1720043935,512:   6440  81  82
1720043935,512:   5682  81  82
1720043935,512:   3609  81  82
1720043935,512:   1168  81  82
1720043935,512:     60  81  82
1720043935,512:    428  81  82
1720043935,512:    618  81  82
1720043935,512:   -635  81  82
1720043935,512:  -2393  81  82
1720043935,512:  -2674  81  82
1720043935,512:  -1111  81  82
1720043935,512:    488  81  82
1720043935,544:    368  81  82
1720043935,544:   -963  81  82
1720043935,544:  -1482  81  82
1720043935,544:   -405  81  82
1720043935,544:    790  81  82
1720043935,544:    329  81  82
1720043935,544:  -1444  81  82
1720043935,544:  -2462  81  82
1720043935,544:  -1670  81  82
1720043935,544:   -313  81  82
1720043935,544:   -234  81  82
1720043935,544:  -1409  81  82
1720043935,544:  -2014  81  82
1720043935,544:   -992  81  82
1720043935,544:    456  81  82
1720043935,544:    402  81  82
1720043935,544:  -1216  81  82
1720043935,544:  -2429  81  82
1720043935,544:  -1826  81  82
1720043935,544:   -320  81  82
1720043935,544:    125  81  82
1720043935,544:   -887  81  82
1720043935,575:  -1686  81  82
1720043935,575:   -893  81  82
1720043935,575:    651  81  82
1720043935,575:    952  81  82
1720043935,575:   -481  81  82
1720043935,575:  -1886  81  82
1720043935,575:  -1567  81  82
1720043935,575:    -65  81  82
1720043935,607:    630  81  82
1720043935,607:   -267  81  82
1720043935,607:  -1295  81  82
1720043935,607:   -805  81  82
1720043935,607:    753  81  82
1720043935,607:   1378  81  82
1720043935,607:    163  81  82
1720043935,607:  -1412  81  82
1720043935,607:  -1421  81  82
1720043935,607:      6  81  82
1720043935,607:    940  81  82
1720043935,607:    230  81  82
1720043935,607:   -960  81  82
1720043935,607:   -787  81  82
1720043935,607:    715  81  82
1720043935,638:   1638  81  82
1720043935,638:    701  81  82
1720043935,638:   -968  81  82
1720043935,638:  -1303  81  82
1720043935,638:     -8  81  82
1720043935,638:   1146  81  82
1720043935,638:    692  81  82
1720043935,638:   -567  81  82
1720043935,638:   -700  81  82
1720043935,638:    673  81  82
1720043935,638:   1824  81  82
1720043935,638:   1175  81  82
1720043935,638:   -544  81  82
1720043935,638:  -1218  81  82
1720043935,638:   -130  81  82
1720043935,638:   1182  81  82
1720043935,638:   1004  81  82
1720043935,638:   -268  81  82
1720043935,638:   -694  81  82
1720043935,638:    502  81  82
1720043935,638:   1848  81  82
1720043935,638:   1533  81  82
1720043935,668:   -144  81  82
1720043935,668:  -1112  81  82
1720043935,668:   -264  81  82
1720043935,668:   1165  81  82
1720043935,668:   1284  81  82
1720043935,668:     70  81  82
1720043935,668:   -625  81  82
1720043935,668:    340  81  82
1720043935,668:   1809  81  82
1720043935,668:   1822  81  82
1720043935,668:    235  81  82
1720043935,668:  -1005  81  82
1720043935,668:   -449  81  82
1720043935,668:   1022  81  82
1720043935,668:   1420  81  82
1720043935,699:    309  81  82
1720043935,699:   -621  81  82
1720043935,699:     82  81  82
1720043935,699:   1622  81  82
1720043935,699:   1962  81  82
1720043935,699:    529  81  82
1720043935,699:   -942  81  82
1720043935,699:   -702  81  82
1720043935,699:    761  81  82
1720043935,699:   1446  81  82
1720043935,699:    508  81  82
1720043935,699:   -610  81  82
1720043935,699:   -203  81  82
1720043935,699:   1337  81  82
1720043935,699:   1993  81  82
1720043935,729:    785  81  82
1720043935,729:   -847  81  82
1720043935,729:   -933  81  82
1720043935,729:    464  81  82
1720043935,729:   1418  81  82
1720043935,729:    717  81  82
1720043935,729:   -516  81  82
1720043935,729:   -397  81  82
1720043935,759:   1104  81  82
1720043935,759:   2075  81  82
1720043935,759:   1163  81  82
1720043935,759:   -555  81  82
1720043935,759:   -966  81  82
1720043935,759:    305  81  82
1720043935,759:   1493  81  82
1720043935,759:   1057  81  82
1720043935,759:   -253  81  82
1720043935,759:   -454  81  82
1720043935,759:    922  81  82
1720043935,759:   2151  81  82
1720043935,759:   1562  81  82
1720043935,759:   -191  81  82
1720043935,759:   -945  81  82
1720043935,759:    119  81  82
1720043935,759:   1490  81  82
1720043935,759:   1368  81  82
1720043935,759:     67  81  82
1720043935,759:   -446  81  82
1720043935,759:    711  81  82
1720043935,759:   2109  81  82
1720043935,789:   1863  81  82
1720043935,789:    177  81  82
1720043935,789:   -862  81  82
1720043935,789:    -56  81  82
1720043935,789:   1412  81  82
1720043935,789:   1590  81  82
1720043935,789:    367  81  82
1720043935,789:   -400  81  82
1720043935,789:    520  81  82
1720043935,789:   2031  81  82
1720043935,789:   2116  81  82
1720043935,789:    534  81  82
1720043935,789:   -778  81  82
1720043935,789:   -274  81  82
1720043935,789:   1233  81  82
1720043935,819:   1709  81  82
1720043935,819:    612  81  82
1720043935,819:   -391  81  82
1720043935,819:    249  81  82
1720043935,819:   1825  81  82
1720043935,819:   2263  81  82
1720043935,819:    867  81  82
1720043935,819:   -672  81  82
1720043935,819:   -515  81  82
1720043935,819:    963  81  82
1720043935,819:   1747  81  82
1720043935,819:    870  81  82
1720043935,819:   -298  81  82
1720043935,819:     22  81  82
1720043935,819:   1560  81  82
1720043935,851:   2312  81  82
1720043935,851:   1183  81  82
1720043935,851:   -478  81  82
1720043935,851:   -654  81  82
1720043935,851:    711  81  82
1720043935,851:   1727  81  82
1720043935,851:   1090  81  82
1720043935,851:   -172  81  82
1720043935,851:   -145  81  82
1720043935,851:   1316  81  82
1720043935,851:   2346  81  82
1720043935,851:   1508  81  82
1720043935,851:   -230  81  82
1720043935,851:   -746  81  82
1720043935,851:    455  81  82
1720043935,882:   1681  81  82
1720043935,882:   1330  81  82
1720043935,882:     34  81  82
1720043935,882:   -248  81  82
1720043935,882:   1050  81  82
1720043935,882:   2289  81  82
1720043935,882:   1764  81  82
1720043935,882:     26  81  82
1720043935,882:   -797  81  82
1720043935,882:    194  81  82
1720043935,882:   1568  81  82
1720043935,882:   1498  81  82
1720043935,882:    206  81  82
1720043935,882:   -370  81  82
1720043935,882:    735  81  82
1720043935,915:   2165  81  82
1720043935,915:   2001  81  82
1720043935,915:    336  81  82
1720043935,915:   -778  81  82
1720043935,915:    -51  81  82
1720043935,915:   1431  81  82
1720043935,915:   1694  81  82
1720043935,915:    512  81  82
1720043935,915:   -317  81  82
1720043935,915:    519  81  82
1720043935,915:   2029  81  82
1720043935,915:   2193  81  82
1720043935,915:    658  81  82
1720043935,915:   -712  81  82
1720043935,915:   -309  81  82
1720043935,915:   1171  81  82
1720043935,915:   1716  81  82
1720043935,915:    685  81  82
1720043935,915:   -348  81  82
1720043935,915:    199  81  82
1720043935,915:   1724  81  82
1720043935,915:   2201  81  82
1720043935,915:    866  81  82
1720043935,945:   -677  81  82
1720043935,945:   -581  81  82
1720043935,945:    857  81  82
1720043935,945:   1663  81  82
1720043935,945:    826  81  82
1720043935,945:   -352  81  82
1720043935,945:    -80  81  82
1720043935,977:   1440  81  82
1720043935,977:   2234  81  82
1720043935,977:   1153  81  82
1720043935,977:   -523  81  82
1720043935,977:   -761  81  82
1720043935,977:    571  81  82
1720043935,977:   1625  81  82
1720043935,977:   1047  81  82
1720043935,977:   -210  81  82
1720043935,977:   -234  81  82
1720043935,977:   1192  81  82
1720043935,977:   2249  81  82
1720043935,977:   1466  81  82
1720043935,977:   -257  81  82
1720043935,977:   -811  81  82
1720043935,977:    354  81  82
1720043935,977:   1595  81  82
1720043935,977:   1286  81  82
1720043935,977:     -1  81  82
1720043935,977:   -323  81  82
1720043935,977:    937  81  82
1720043935,977:   2193  81  82
1720043935,977:   1722  81  82
1720043936,008:      7  81  82
1720043936,008:   -854  81  82
1720043936,008:     83  81  82
1720043936,008:   1455  81  82
1720043936,008:   1443  81  82
1720043936,008:    205  81  82
1720043936,008:   -376  81  82
1720043936,038:    680  81  82
1720043936,038:   2081  81  82
1720043936,038:   1935  81  82
1720043936,038:    299  81  82
1720043936,038:   -828  81  82
1720043936,038:   -152  81  82
1720043936,038:   1291  81  82
1720043936,038:   1561  81  82
1720043936,038:    411  81  82
1720043936,038:   -404  81  82
1720043936,038:    421  81  82
1720043936,038:   1930  81  82
1720043936,038:   2126  81  82
1720043936,038:    633  81  82
1720043936,038:   -726  81  82
1720043936,038:   -344  81  82
1720043936,038:   1121  81  82
1720043936,038:   1684  81  82
1720043936,038:    691  81  82
1720043936,038:   -322  81  82
1720043936,038:    217  81  82
1720043936,038:   1738  81  82
1720043936,038:   2239  81  82
1720043936,068:    943  81  82
1720043936,068:   -584  81  82
1720043936,068:   -506  81  82
1720043936,068:    908  81  82
1720043936,068:   1715  81  82
1720043936,068:    901  81  82
1720043936,068:   -264  81  82
1720043936,068:     -5  81  82
1720043936,068:   1499  81  82
1720043936,068:   2299  81  82
1720043936,068:   1244  81  82
1720043936,068:   -418  81  82
1720043936,099:   -671  81  82
1720043936,099:    636  81  82
1720043936,099:   1679  81  82
1720043936,099:   1105  81  82
1720043936,099:   -160  81  82
1720043936,099:   -218  81  82
1720043936,099:   1169  81  82
1720043936,099:   2212  81  82
1720043936,099:   1444  81  82
1720043936,099:   -265  81  82
1720043936,099:   -818  81  82
1720043936,099:    351  81  82
1720043936,099:   1623  81  82
1720043936,099:   1373  81  82
1720043936,099:    136  81  82
1720043936,131:   -168  81  82
1720043936,131:   1089  81  82
1720043936,131:   2351  81  82
1720043936,131:   1906  81  82
1720043936,131:    210  81  82
1720043936,131:   -663  81  82
1720043936,131:    231  81  82
1720043936,131:   1558  81  82
1720043936,131:   1522  81  82
1720043936,131:    281  81  82
1720043936,131:   -296  81  82
1720043936,131:    758  81  82
1720043936,131:   2155  81  82
1720043936,131:   2006  81  82
1720043936,131:    365  81  82
1720043936,131:   -771  81  82
1720043936,131:   -105  81  82
1720043936,131:   1329  81  82
1720043936,131:   1590  81  82
1720043936,131:    423  81  82
1720043936,131:   -418  81  82
1720043936,131:    385  81  82
1720043936,131:   1888  81  82
1720043936,163:   2093  81  82
1720043936,163:    607  81  82
1720043936,163:   -757  81  82
1720043936,163:   -382  81  82
1720043936,163:   1081  81  82
1720043936,163:   1647  81  82
1720043936,163:    648  81  82
1720043936,163:   -383  81  82
1720043936,163:    145  81  82
1720043936,163:   1676  81  82
1720043936,163:   2200  81  82
1720043936,163:    908  81  82
1720043936,163:   -648  81  82
1720043936,163:   -604  81  82
1720043936,163:    805  81  82
1720043936,195:   1639  81  82
1720043936,195:    847  81  82
1720043936,195:   -325  81  82
1720043936,195:    -87  81  82
1720043936,195:   1414  81  82
1720043936,195:   2237  81  82
1720043936,195:   1200  81  82
1720043936,195:   -472  81  82
1720043936,195:   -746  81  82
1720043936,195:    563  81  82
1720043936,195:   1634  81  82
1720043936,195:   1082  81  82
1720043936,195:   -188  81  82
1720043936,195:   -255  81  82
1720043936,195:   1153  81  82
1720043936,227:   2241  81  82
1720043936,227:   1503  81  82
1720043936,227:   -211  81  82
1720043936,227:   -780  81  82
1720043936,227:    396  81  82
1720043936,227:   1690  81  82
1720043936,227:   1418  81  82
1720043936,227:     89  81  82
1720043936,227:   -327  81  82
1720043936,227:    876  81  82
1720043936,227:   2143  81  82
1720043936,227:   1673  81  82
1720043936,227:   -149  81  82
1720043936,227:  -1203  81  82
1720043936,227:   -407  81  82
1720043936,258:   1006  81  82
1720043936,258:   1225  81  82
1720043936,258:    348  81  82
1720043936,258:    291  81  82
1720043936,258:   2175  81  82
1720043936,258:   4783  81  82
1720043936,258:   6057  81  82
1720043936,258:   5715  81  82
1720043936,258:   5542  81  82
1720043936,258:   6906  81  82
1720043936,258:   8966  81  82
1720043936,258:   9765  81  82
1720043936,258:   8720  81  82
1720043936,258:   7230  81  82
1720043936,258:   6611  81  82
1720043936,288:   6351  79  81
1720043936,288:   4975  79  81
1720043936,288:   2310  79  81
1720043936,288:     23  79  81
1720043936,288:   -500  79  81
1720043936,288:     66  79  81
1720043936,288:    -64  79  81
1720043936,288:  -1347  79  81
1720043936,288:  -2230  79  81
1720043936,288:  -1308  79  81
1720043936,288:    613  79  81
1720043936,288:   1342  79  81
1720043936,288:     30  79  81
1720043936,288:  -1678  79  81
1720043936,288:  -1779  79  81
1720043936,320:   -433  79  81
1720043936,320:    389  79  81
1720043936,320:   -448  79  81
1720043936,320:  -1736  79  81
1720043936,320:  -1630  79  81
1720043936,320:   -198  79  81
1720043936,320:    633  79  81
1720043936,320:   -381  79  81
1720043936,320:  -2063  79  81
1720043936,320:  -2352  79  81
1720043936,320:  -1011  79  81
1720043936,320:    133  79  81
1720043936,320:   -374  79  81
1720043936,320:  -1668  79  81
1720043936,320:  -1779  79  81
1720043936,320:   -351  79  81
1720043936,320:    846  79  81
1720043936,320:    229  79  81
1720043936,320:  -1440  79  81
1720043936,320:  -2033  79  81
1720043936,320:   -872  79  81
1720043936,320:    462  79  81
1720043936,351:    254  79  81
1720043936,351:  -1044  79  81
1720043936,351:  -1455  79  81
1720043936,351:   -213  79  81
1720043936,351:   1166  79  81
1720043936,351:    855  79  81
1720043936,351:   -820  79  81
1720043936,351:  -1759  79  81
1720043936,381:   -873  79  81
1720043936,381:    568  79  81
1720043936,381:    665  79  81
1720043936,381:   -566  79  81
1720043936,381:  -1237  79  81
1720043936,381:   -216  79  81
1720043936,381:   1297  79  81
1720043936,381:   1318  79  81
1720043936,381:   -268  79  81
1720043936,381:  -1482  79  81
1720043936,381:   -874  79  81
1720043936,381:    639  79  81
1720043936,381:   1048  79  81
1720043936,381:    -65  79  81
1720043936,381:   -978  79  81
1720043936,411:   -234  79  81
1720043936,411:   1345  79  81
1720043936,411:   1704  79  81
1720043936,411:    281  79  81
1720043936,411:  -1163  79  81
1720043936,411:   -882  79  81
1720043936,411:    613  79  81
1720043936,411:   1307  79  81
1720043936,411:    374  79  81
1720043936,411:   -719  79  81
1720043936,411:   -266  79  81
1720043936,411:   1314  79  81
1720043936,411:   1988  79  81
1720043936,411:    787  79  81
1720043936,411:   -825  79  81
1720043936,411:   -879  79  81
1720043936,411:    538  79  81
1720043936,411:   1487  79  81
1720043936,411:    768  79  81
1720043936,411:   -470  79  81
1720043936,411:   -342  79  81
1720043936,411:   1162  79  81
1720043936,442:   2118  79  81
1720043936,442:   1187  79  81
1720043936,442:   -532  79  81
1720043936,442:   -932  79  81
1720043936,442:    343  79  81
1720043936,442:   1523  79  81
1720043936,442:   1079  79  81
1720043936,442:   -228  79  81
1720043936,474:   -429  79  81
1720043936,474:    928  79  81
1720043936,474:   2126  79  81
1720043936,474:   1524  79  81
1720043936,474:   -209  79  81
1720043936,474:   -941  79  81
1720043936,474:    112  79  81
1720043936,474:   1441  79  81
1720043936,474:   1287  79  81
1720043936,474:     -9  79  81
1720043936,474:   -506  79  81
1720043936,474:    636  79  81
1720043936,474:   1976  79  81
1720043936,474:   1664  79  81
1720043936,474:    -55  79  81
1720043936,474:  -1102  79  81
1720043936,474:   -306  79  81
1720043936,474:   1134  79  81
1720043936,474:   1282  79  81
1720043936,474:     51  79  81
1720043936,474:   -712  79  81
1720043936,474:    202  79  81
1720043936,506:   1691  79  81
1720043936,506:   1759  79  81
1720043936,506:    194  79  81
1720043936,506:  -1087  79  81
1720043936,506:   -575  79  81
1720043936,506:    906  79  81
1720043936,506:   1357  79  81
1720043936,506:    278  79  81
1720043936,506:   -670  79  81
1720043936,506:      9  79  81
1720043936,506:   1567  79  81
1720043936,506:   1955  79  81
1720043936,506:    542  79  81
1720043936,506:   -955  79  81
1720043936,506:   -740  79  81
1720043936,538:    753  79  81
1720043936,538:   1507  79  81
1720043936,538:    610  79  81
1720043936,538:   -531  79  81
1720043936,538:   -162  79  81
1720043936,538:   1395  79  81
1720043936,538:   2126  79  81
1720043936,538:    983  79  81
1720043936,538:   -650  79  81
1720043936,538:   -774  79  81
1720043936,538:    616  79  81
1720043936,538:   1617  79  81
1720043936,538:    963  79  81
1720043936,538:   -287  79  81
1720043936,538:   -239  79  81
1720043936,568:   1215  79  81
1720043936,568:   2209  79  81
1720043936,568:   1356  79  81
1720043936,568:   -340  79  81
1720043936,568:   -789  79  81
1720043936,568:    442  79  81
1720043936,568:   1656  79  81
1720043936,568:   1302  79  81
1720043936,568:     52  79  81
1720043936,568:   -172  79  81
1720043936,568:   1122  79  81
1720043936,568:   2288  79  81
1720043936,568:   1697  79  81
1720043936,568:    -34  79  81
1720043936,568:   -802  79  81
1720043936,598:    208  79  81
1720043936,598:   1535  79  81
1720043936,598:   1418  79  81
1720043936,598:    146  79  81
1720043936,598:   -361  79  81
1720043936,598:    776  79  81
1720043936,598:   2166  79  81
1720043936,598:   1945  79  81
1720043936,598:    283  79  81
1720043936,598:   -782  79  81
1720043936,598:    -38  79  81
1720043936,598:   1387  79  81
1720043936,598:   1579  79  81
1720043936,598:    393  79  81
1720043936,598:   -375  79  81
1720043936,628:    505  79  81
1720043936,628:   1991  79  81
1720043936,628:   2104  79  81
1720043936,628:    571  79  81
1720043936,628:   -737  79  81
1720043936,628:   -284  79  81
1720043936,628:   1178  79  81
1720043936,628:   1669  79  81
1720043936,628:    626  79  81
1720043936,628:   -355  79  81
1720043936,628:    248  79  81
1720043936,628:   1780  79  81
1720043936,628:   2231  79  81
1720043936,628:    907  79  81
1720043936,628:   -573  79  81
1720043936,658:   -422  79  81
1720043936,658:   1005  79  81
1720043936,658:   1754  79  81
1720043936,658:    884  79  81
1720043936,658:   -266  79  81
1720043936,658:     42  79  81
1720043936,658:   1545  79  81
1720043936,658:   2279  79  81
1720043936,658:   1167  79  81
1720043936,658:   -469  79  81
1720043936,658:   -640  79  81
1720043936,658:    714  79  81
1720043936,658:   1737  79  81
1720043936,658:   1135  79  81
1720043936,658:    -98  79  81
1720043936,688:    -93  79  81
1720043936,688:   1298  79  81
1720043936,688:   2259  79  81
1720043936,688:   1408  79  81
1720043936,688:   -293  79  81
1720043936,688:   -773  79  81
1720043936,688:    426  79  81
1720043936,688:   1631  79  81
1720043936,688:   1285  79  81
1720043936,688:     23  79  81
1720043936,688:   -243  79  81
1720043936,688:   1014  79  81
1720043936,688:   2188  79  81
1720043936,688:   1645  79  81
1720043936,688:    -40  79  81
1720043936,720:   -795  79  81
1720043936,720:    220  79  81
1720043936,720:   1584  79  81
1720043936,720:   1540  79  81
1720043936,720:    325  79  81
1720043936,720:   -196  79  81
1720043936,720:    855  79  81
1720043936,720:   2148  79  81
1720043936,720:   1875  79  81
1720043936,720:    208  79  81
1720043936,720:   -845  79  81
1720043936,720:    -86  79  81
1720043936,720:   1377  79  81
1720043936,720:   1633  79  81
1720043936,720:    500  79  81
1720043936,752:   -272  79  81
1720043936,752:    546  79  81
1720043936,752:   1975  79  81
1720043936,752:   2088  79  81
1720043936,752:    594  79  81
1720043936,752:   -702  79  81
1720043936,752:   -283  79  81
1720043936,752:   1150  79  81
1720043936,752:   1671  79  81
1720043936,752:    700  79  81
1720043936,752:   -251  79  81
1720043936,752:    292  79  81
1720043936,752:   1725  79  81
1720043936,752:   2132  79  81
1720043936,752:    842  79  81
1720043936,784:   -588  79  81
1720043936,784:   -433  79  81
1720043936,784:    967  79  81
1720043936,784:   1726  79  81
1720043936,784:    921  79  81
1720043936,784:   -181  79  81
1720043936,784:     90  79  81
1720043936,784:   1495  79  81
1720043936,784:   2165  79  81
1720043936,784:   1082  79  81
1720043936,784:   -482  79  81
1720043936,784:   -626  79  81
1720043936,784:    704  79  81
1720043936,784:   1716  79  81
1720043936,784:   1163  79  81
1720043936,816:     -7  79  81
1720043936,816:      5  79  81
1720043936,816:   1348  79  81
1720043936,816:   2289  79  81
1720043936,816:   1489  79  81
1720043936,816:   -141  79  81
1720043936,816:   -612  79  81
1720043936,816:    532  79  81
1720043936,816:   1692  79  81
1720043936,816:   1364  79  81
1720043936,816:    143  79  81
1720043936,816:   -120  79  81
1720043936,816:   1104  79  81
1720043936,816:   2267  79  81
1720043936,816:   1753  79  81
1720043936,816:     76  79  81
1720043936,816:   -747  79  81
1720043936,816:    156  79  81
1720043936,816:   1451  79  81
1720043936,816:   1406  79  81
1720043936,816:    200  79  81
1720043936,816:   -352  79  81
1720043936,816:    671  79  81
1720043936,848:   2014  79  81
1720043936,848:   1871  79  81
1720043936,848:    312  79  81
1720043936,848:   -741  79  81
1720043936,848:    -63  79  81
1720043936,848:   1331  79  81
1720043936,848:   1586  79  81
1720043936,848:    480  79  81
1720043936,848:   -287  79  81
1720043936,848:    527  79  81
1720043936,848:   1984  79  81
1720043936,848:   2158  79  81
1720043936,848:    707  79  81
1720043936,848:   -598  79  81
1720043936,848:   -209  79  81
1720043936,879:   1215  79  81
1720043936,879:   1750  79  81
1720043936,879:    769  79  81
1720043936,879:   -219  79  81
1720043936,879:    316  79  81
1720043936,879:   1807  79  81
1720043936,879:   2296  79  81
1720043936,879:   1019  79  81
1720043936,879:   -496  79  81
1720043936,879:   -451  79  81
1720043936,879:    899  79  81
1720043936,879:   1661  79  81
1720043936,879:    841  79  81
1720043936,879:   -316  79  81
1720043936,879:    -66  79  81
1720043936,918:   1423  79  81
1720043936,918:   2248  79  81
1720043936,918:   1266  79  81
1720043936,918:   -317  79  81
1720043936,918:   -536  79  81
1720043936,918:    763  79  81
1720043936,918:   1801  79  81
1720043936,918:   1247  79  81
1720043936,918:      3  79  81
1720043936,918:    -67  79  81
1720043936,918:   1280  79  81
1720043936,918:   2294  79  81
1720043936,918:   1531  79  81
1720043936,918:   -164  79  81
1720043936,918:   -732  79  81
1720043936,918:    395  79  81
1720043936,918:   1632  79  81
1720043936,918:   1362  79  81
1720043936,918:     92  79  81
1720043936,918:   -282  79  81
1720043936,918:    895  79  81
1720043936,918:   2118  79  81
1720043936,941:   1689  79  81
1720043936,941:     18  79  81
1720043936,941:   -867  79  81
1720043936,941:      5  79  81
1720043936,941:   1349  79  81
1720043936,941:   1373  79  81
1720043936,941:    163  79  81
1720043936,941:   -461  79  81
1720043936,973:    513  79  81
1720043936,973:   1889  79  81
1720043936,973:   1802  79  81
1720043936,973:    222  79  81
1720043936,973:   -943  79  81
1720043936,973:   -364  79  81
1720043936,973:   1038  79  81
1720043936,973:   1373  79  81
1720043936,973:    311  79  81
1720043936,973:   -504  79  81
1720043936,973:    239  79  81
1720043936,973:   1698  79  81
1720043936,973:   1946  79  81
1720043936,973:    544  79  81
1720043936,973:   -798  79  81
1720043937,004:   -484  79  81
1720043937,004:    917  79  81
1720043937,004:   1495  79  81
1720043937,004:    548  79  81
1720043937,004:   -477  79  81
1720043937,004:     -9  79  81
1720043937,004:   1474  79  81
1720043937,004:   2031  79  81
1720043937,004:    823  79  81
1720043937,004:   -697  79  81
1720043937,004:   -693  79  81
1720043937,004:    670  79  81
1720043937,004:   1527  79  81
1720043937,004:    798  79  81
1720043937,004:   -359  79  81
1720043937,004:   -181  79  81
1720043937,004:   1268  79  81
1720043937,004:   2144  79  81
1720043937,004:   1236  79  81
1720043937,004:   -362  79  81
1720043937,004:   -686  79  81
1720043937,004:    532  79  81
1720043937,036:   1596  79  81
1720043937,036:   1106  79  81
1720043937,036:   -192  79  81
1720043937,036:   -474  79  81
1720043937,036:    653  79  81
1720043937,036:   1644  79  81
1720043937,036:   1102  79  81
1720043937,036:   -243  79  81
1720043937,036:   -409  79  81
1720043937,036:   1304  79  81
1720043937,036:   3540  79  81
1720043937,036:   4716  79  81
1720043937,036:   5039  79  81
1720043937,036:   6010  79  81
1720043937,036:   8129  79  81
1720043937,067:  10056  76  80
1720043937,067:  10271  76  80
1720043937,067:   9038  76  80
1720043937,067:   7963  76  80
1720043937,067:   7727  76  80
1720043937,067:   7242  76  80
1720043937,067:   5283  76  80
1720043937,067:   2426  76  80
1720043937,067:    571  76  80
1720043937,067:    505  76  80
1720043937,067:    864  76  80
1720043937,067:   -115  76  80
1720043937,098:  -2205  76  80
1720043937,098:  -3359  76  80
1720043937,098:  -2367  76  80
1720043937,098:   -433  76  80
1720043937,098:    301  76  80
1720043937,098:   -611  76  80
1720043937,098:  -1490  76  80
1720043937,098:   -899  76  80
1720043937,098:    433  76  80
1720043937,098:    621  76  80
1720043937,098:   -817  76  80
1720043937,098:  -2227  76  80
1720043937,098:  -2006  76  80
1720043937,098:   -665  76  80
1720043937,098:    -76  76  80
1720043937,130:   -973  76  80
1720043937,130:  -1981  76  80
1720043937,130:  -1544  76  80
1720043937,130:    -86  76  80
1720043937,130:    493  76  80
1720043937,130:   -676  76  80
1720043937,130:  -2198  76  80
1720043937,130:  -2243  76  80
1720043937,130:   -900  76  80
1720043937,130:     34  76  80
1720043937,130:   -536  76  80
1720043937,130:  -1559  76  80
1720043937,130:  -1343  76  80
1720043937,130:     76  76  80
1720043937,130:    924  76  80
1720043937,130:     24  76  80
1720043937,130:  -1558  76  80
1720043937,130:  -1885  76  80
1720043937,130:   -669  76  80
1720043937,130:    440  76  80
1720043937,130:     64  76  80
1720043937,130:  -1069  76  80
1720043937,130:  -1167  76  80
1720043937,161:    131  76  80
1720043937,161:   1224  76  80
1720043937,161:    633  76  80
1720043937,161:   -974  76  80
1720043937,161:  -1620  76  80
1720043937,161:   -611  76  80
1720043937,161:    645  76  80
1720043937,161:    538  76  80
1720043937,161:   -600  76  80
1720043937,161:   -988  76  80
1720043937,161:    113  76  80
1720043937,161:   1366  76  80
1720043937,161:   1092  76  80
1720043937,161:   -451  76  80
1720043937,161:  -1349  76  80
1720043937,192:   -565  76  80
1720043937,192:    776  76  80
1720043937,192:    912  76  80
1720043937,192:   -199  76  80
1720043937,192:   -852  76  80
1720043937,192:     31  76  80
1720043937,192:   1407  76  80
1720043937,222:   1458  76  80
1720043937,222:     28  76  80
1720043937,222:  -1103  76  80
1720043937,222:   -584  76  80
1720043937,222:    784  76  80
1720043937,222:   1167  76  80
1720043937,222:    143  76  80
1720043937,222:   -742  76  80
1720043937,222:   -129  76  80
1720043937,222:   1280  76  80
1720043937,222:   1621  76  80
1720043937,222:    353  76  80
1720043937,222:   -950  76  80
1720043937,222:   -683  76  80
1720043937,222:    720  76  80
1720043937,222:   1422  76  80
1720043937,222:    629  76  80
1720043937,222:   -368  76  80
1720043937,222:    -20  76  80
1720043937,222:   1336  76  80
1720043937,222:   1888  76  80
1720043937,222:    760  76  80
1720043937,222:   -737  76  80
1720043937,253:   -821  76  80
1720043937,253:    440  76  80
1720043937,253:   1305  76  80
1720043937,253:    685  76  80
1720043937,253:   -398  76  80
1720043937,253:   -258  76  80
1720043937,253:   1105  76  80
1720043937,253:   1952  76  80
1720043937,253:   1084  76  80
1720043937,253:   -490  76  80
1720043937,253:   -862  76  80
1720043937,253:    282  76  80
1720043937,253:   1328  76  80
1720043937,253:    900  76  80
1720043937,253:   -298  76  80
1720043937,753:   -476  76  80
1720043937,753:    759  76  80
1720043937,753:   1839  76  80
1720043937,753:   1280  76  80
1720043937,753:   -292  76  80
1720043937,753:   -929  76  80
1720043937,753:     62  76  80
1720043937,753:   1283  76  80
1720043937,753:   1123  76  80
1720043937,753:    -96  76  80
1720043937,753:   -587  76  80
1720043937,753:    421  76  80
1720043937,753:   1621  76  80
1720043937,753:   1333  76  80
1720043937,753:   -217  76  80
1720043937,753:  -1139  76  80
1720043937,753:   -381  76  80
1720043937,753:    958  76  80
1720043937,753:   1125  76  80
1720043937,753:     52  76  80
1720043937,753:   -594  76  80
1720043937,753:    256  76  80
1720043937,753:   1582  76  80
1720043937,753:   1596  76  80
1720043937,753:    141  76  80
1720043937,753:  -1018  76  80
1720043937,753:   -527  76  80
1720043937,753:    837  76  80
1720043937,753:   1257  76  80
1720043937,753:    294  76  80
1720043937,753:   -544  76  80
1720043937,753:     81  76  80
1720043937,753:   1486  76  80
1720043937,753:   1830  76  80
1720043937,753:    564  76  80
1720043937,753:   -762  76  80
1720043937,753:   -549  76  80
1720043937,753:    798  76  80
1720043937,753:   1473  76  80
1720043937,753:    672  76  80
1720043937,753:   -342  76  80
1720043937,753:    -18  76  80
1720043937,753:   1346  76  80
1720043937,753:   1959  76  80
1720043937,753:    910  76  80
1720043937,753:   -555  76  80
1720043937,753:   -669  76  80
1720043937,753:    555  76  80
1720043937,753:   1427  76  80
1720043937,753:    848  76  80
1720043937,753:   -220  76  80
1720043937,753:   -116  76  80
1720043937,753:   1209  76  80
1720043937,753:   2071  76  80
1720043937,753:   1262  76  80
1720043937,753:   -279  76  80
1720043937,753:   -675  76  80
1720043937,753:    437  76  80
1720043937,753:   1509  76  80
1720043937,753:   1162  76  80
1720043937,753:     20  76  80
1720043937,753:   -182  76  80
1720043937,753:    995  76  80
1720043937,753:   2073  76  80
1720043937,785:   1583  76  80
1720043937,785:     66  76  80
1720043937,785:   -614  76  80
1720043937,785:    276  76  80
1720043937,785:   1457  76  80
1720043937,785:   1374  76  80
1720043937,785:    273  76  80
1720043937,785:   -166  76  80
1720043937,785:    823  76  80
1720043937,785:   2024  76  80
1720043937,785:   1815  76  80
1720043937,785:    351  76  80
1720043937,785:   -582  76  80
1720043937,785:     70  76  80
1720043937,785:   1315  76  80
1720043937,785:   1484  76  80
1720043937,785:    460  76  80
1720043937,785:   -189  76  80
1720043937,785:    602  76  80
1720043937,785:   1904  76  80
1720043937,785:   1984  76  80
1720043937,785:    621  76  80
1720043937,785:   -531  76  80
1720043937,785:   -130  76  80
1720043937,785:   1147  76  80
1720043937,785:   1553  76  80
1720043937,785:    612  76  80
1720043937,785:   -252  76  80
1720043937,785:    306  76  80
1720043937,785:   1686  76  80
1720043937,785:   2090  76  80
1720043937,785:    906  76  80
1720043937,785:   -420  76  80
1720043937,785:   -284  76  80
1720043937,785:    999  76  80
1720043937,785:   1684  76  80
1720043937,785:    925  76  80
1720043937,785:    -93  76  80
1720043937,785:    188  76  80
1720043937,785:   1545  76  80
1720043937,785:   2223  76  80
1720043937,785:   1245  76  80
1720043937,785:   -224  76  80
1720043937,785:   -402  76  80
1720043937,785:    790  76  80
1720043937,785:   1699  76  80
1720043937,785:   1155  76  80
1720043937,785:     26  76  80
1720043937,785:     -1  76  80
1720043937,785:   1237  76  80
1720043937,785:   2123  76  80
1720043937,785:   1389  76  80
1720043937,785:   -138  76  80
1720043937,785:   -598  76  80
1720043937,785:    466  76  80
1720043937,785:   1578  76  80
1720043937,785:   1315  76  80
1720043937,785:    198  76  80
1720043937,785:    -64  76  80
1720043937,785:   1041  76  80
1720043937,785:   2100  76  80
1720043937,785:   1623  76  80
1720043937,785:     81  76  80
1720043937,785:   -670  76  80
1720043937,816:    171  76  80
1720043937,816:   1373  76  80
1720043937,816:   1346  76  80
1720043937,816:    259  76  80
1720043937,816:   -225  76  80
1720043937,816:    722  76  80
1720043937,816:   1933  76  80
1720043937,816:   1759  76  80
1720043937,816:    296  76  80
1720043937,816:   -678  76  80
1720043937,816:    -40  76  80
1720043937,816:   1267  76  80
1720043937,816:   1525  76  80
1720043937,816:    518  76  80
1720043937,816:   -217  76  80
1720043937,816:    460  76  80
1720043937,816:   1721  76  80
1720043937,816:   1845  76  80
1720043937,816:    528  76  80
1720043937,816:   -643  76  80
1720043937,816:   -282  76  80
1720043937,816:   1025  76  80
1720043937,816:   1548  76  80
1720043937,816:    711  76  80
1720043937,816:   -167  76  80
1720043937,816:    271  76  80
1720043937,816:   1545  76  80
1720043937,816:   1940  76  80
1720043937,816:    799  76  80
1720043937,816:   -532  76  80
1720043937,816:   -463  76  80
1720043937,816:    784  76  80
1720043937,816:   1537  76  80
1720043937,816:    895  76  80
1720043937,816:    -88  76  80
1720043937,816:    101  76  80
1720043937,816:   1335  76  80
1720043937,816:   1982  76  80
1720043937,816:   1070  76  80
1720043937,816:   -348  76  80
1720043937,816:   -558  76  80
1720043937,816:    575  76  80
1720043937,816:   1502  76  80
1720043937,816:   1060  76  80
1720043937,816:     14  76  80
1720043937,816:    -28  76  80
1720043937,816:   1148  76  80
1720043937,816:   2032  76  80
1720043937,816:   1380  76  80
1720043937,816:    -78  76  80
1720043937,816:   -561  76  80
1720043937,816:    422  76  80
1720043937,816:   1496  76  80
1720043937,816:   1269  76  80
1720043937,816:    185  76  80
1720043937,816:   -115  76  80
1720043937,816:    930  76  80
1720043937,816:   2006  76  80
1720043937,816:   1639  76  80
1720043937,816:    196  76  80
1720043937,816:   -558  76  80
1720043937,816:    209  76  80
1720043937,816:   1370  76  80
1720043937,816:   1378  76  80
1720043937,849:    340  76  80
1720043937,849:   -150  76  80
1720043937,849:    766  76  80
1720043937,849:   2005  76  80
1720043937,849:   1937  76  80
1720043937,849:    574  76  80
1720043937,849:   -388  76  80
1720043937,849:    189  76  80
1720043937,849:   1447  76  80
1720043937,849:   1712  76  80
1720043937,849:    729  76  80
1720043937,849:    -12  76  80
1720043937,849:    648  76  80
1720043937,849:   1935  76  80
1720043937,849:   2127  76  80
1720043937,849:    849  76  80
1720043937,849:   -376  76  80
1720043937,849:   -138  76  80
1720043937,849:   1055  76  80
1720043937,849:   1529  76  80
1720043937,849:    698  76  80
1720043937,849:   -154  76  80
1720043937,849:    331  76  80
1720043937,849:   1675  76  80
1720043937,849:   2141  76  80
1720043937,849:   1019  76  80
1720043937,849:   -361  76  80
1720043937,849:   -377  76  80
1720043937,849:    789  76  80
1720043937,849:   1467  76  80
1720043937,849:    745  76  80
1720043937,849:   -301  76  80
1720043937,849:   -102  76  80
1720043937,849:   1231  76  80
1720043937,849:   2004  76  80
1720043937,849:   1157  76  80
1720043937,849:   -278  76  80
1720043937,849:   -533  76  80
1720043937,849:    578  76  80
1720043937,849:   1498  76  80
1720043937,849:   1020  76  80
1720043937,849:    -90  76  80
1720043937,849:   -169  76  80
1720043937,849:   1041  76  80
1720043937,849:   2002  76  80
1720043937,849:   1393  76  80
1720043937,849:    -87  76  80
1720043937,849:   -620  76  80
1720043937,849:    343  76  80
1720043937,849:   1437  76  80
1720043937,849:   1230  76  80
1720043937,849:    140  76  80
1720043937,849:   -164  76  80
1720043937,849:    908  76  80
1720043937,849:   2030  76  80
1720043937,849:   1678  76  80
1720043937,849:    196  76  80
1720043937,849:   -608  76  80
1720043937,849:    156  76  80
1720043937,849:   1359  76  80
1720043937,849:   1386  76  80
1720043937,849:    308  76  80
1720043937,849:   -232  76  80
1720043937,849:    691  76  80
1720043937,880:   1992  76  80
1720043937,880:   1961  76  80
1720043937,880:    548  76  80
1720043937,880:   -514  76  80
1720043937,880:      0  76  80
1720043937,880:   1260  76  80
1720043937,880:   1534  76  80
1720043937,880:    496  76  80
1720043937,880:   -351  76  80
1720043937,880:    223  76  80
1720043937,880:   1491  76  80
1720043937,880:   1735  76  80
1720043937,880:    591  76  80
1720043937,880:   -342  76  80
1720043937,880:    452  76  80
1720043937,880:   2537  76  80
1720043937,880:   4213  76  80
1720043937,880:   4757  76  80
1720043937,880:   5250  76  80
1720043937,880:   6873  76  80
1720043937,880:   9109  76  80
1720043937,880:  10306  76  80
1720043937,880:   9779  76  80
1720043937,880:   8653  76  80
1720043937,880:   8194  76  80
1720043937,880:   8044  76  80
1720043937,880:   6804  76  80
1720043937,880:   4135  76  80
1720043937,880:   1549  76  80
1720043937,880:    612  76  80
1720043937,880:    924  76  80
1720043937,880:    633  76  80
1720043937,880:  -1140  76  80
1720043937,880:  -3029  76  80
1720043937,880:  -3141  76  80
1720043937,880:  -1507  76  80
1720043937,880:    -48  76  80
1720043937,880:   -205  76  80
1720043937,880:  -1224  76  80
1720043937,880:  -1330  76  80
1720043937,880:   -194  76  80
1720043937,880:    657  76  80
1720043937,880:    -88  76  80
1720043937,880:  -1675  76  80
1720043937,880:  -2220  76  80
1720043937,880:  -1203  76  80
1720043937,880:    -86  76  80
1720043937,880:   -360  76  80
1720043937,880:  -1561  76  80
1720043937,880:  -1913  76  80
1720043937,880:   -781  76  80
1720043937,880:    438  76  80
1720043937,880:    107  76  80
1720043937,880:  -1449  76  80
1720043937,880:  -2328  76  80
1720043937,880:  -1550  76  80
1720043937,880:   -246  76  80
1720043937,880:    -96  76  80
1720043937,880:  -1078  76  80
1720043937,959:  -1554  79  79
1720043937,959:   -582  79  79
1720043937,959:    743  79  79
1720043937,959:    689  79  79
1720043937,959:   -779  79  79
1720043937,959:  -1875  79  79
1720043937,959:  -1330  79  79
1720043937,959:     22  79  79
1720043937,959:    411  79  79
1720043937,959:   -517  79  79
1720043937,959:  -1255  79  79
1720043937,959:   -561  79  79
1720043937,959:    815  79  79
1720043937,959:   1087  79  79
1720043937,959:   -184  79  79
1720043937,959:  -1425  79  79
1720043937,959:  -1126  79  79
1720043937,959:    219  79  79
1720043937,959:    826  79  79
1720043937,959:     -8  79  79
1720043937,959:   -965  79  79
1720043937,959:   -549  79  79
1720043937,959:    860  79  79
1720043937,959:   1461  79  79
1720043937,959:    392  79  79
1720043937,959:  -1073  79  79
1720043937,959:  -1188  79  79
1720043937,959:     20  79  79
1720043937,959:    888  79  79
1720043937,959:    346  79  79
1720043937,959:   -661  79  79
1720043937,959:   -529  79  79
1720043937,959:    768  79  79
1720043937,959:   1596  79  79
1720043937,959:    814  79  79
1720043937,959:   -633  79  79
1720043937,959:   -929  79  79
1720043937,959:    216  79  79
1720043937,959:   1232  79  79
1720043937,959:    772  79  79
1720043937,959:   -468  79  79
1720043937,959:   -695  79  79
1720043937,959:    535  79  79
1720043937,959:   1685  79  79
1720043937,959:   1225  79  79
1720043938,007:   -312  79  79
1720043938,007:  -1007  79  79
1720043938,007:    -75  79  79
1720043938,007:   1188  79  79
1720043938,007:   1173  79  79
1720043938,007:    102  79  79
1720043938,007:   -335  79  79
1720043938,007:    642  79  79
1720043938,007:   1810  79  79
1720043938,007:   1548  79  79
1720043938,007:     47  79  79
1720043938,007:   -870  79  79
1720043938,007:   -164  79  79
1720043938,007:   1119  79  79
1720043938,007:   1272  79  79
1720043938,007:    203  79  79
1720043938,007:   -478  79  79
1720043938,007:    294  79  79
1720043938,007:   1570  79  79
1720043938,007:   1620  79  79
1720043938,007:    256  79  79
1720043938,007:   -862  79  79
1720043938,039:   -429  79  79
1720043938,039:    848  79  79
1720043938,039:   1247  79  79
1720043938,039:    328  79  79
1720043938,039:   -495  79  79
1720043938,039:     56  79  79
1720043938,039:   1359  79  79
1720043938,039:   1684  79  79
1720043938,039:    508  79  79
1720043938,039:   -716  79  79
1720043938,039:   -483  79  79
1720043938,039:    815  79  79
1720043938,039:   1459  79  79
1720043938,039:    690  79  79
1720043938,039:   -284  79  79
1720043938,071:     14  79  79
1720043938,071:   1295  79  79
1720043938,071:   1851  79  79
1720043938,071:    824  79  79
1720043938,071:   -574  79  79
1720043938,071:   -645  79  79
1720043938,071:    592  79  79
1720043938,071:   1494  79  79
1720043938,071:    973  79  79
1720043938,071:    -77  79  79
1720043938,071:    -60  79  79
1720043938,071:   1107  79  79
1720043938,071:   1867  79  79
1720043938,071:   1088  79  79
1720043938,103:   -344  79  79
1720043938,103:   -666  79  79
1720043938,103:    451  79  79
1720043938,103:   1532  79  79
1720043938,103:   1260  79  79
1720043938,103:    205  79  79
1720043938,103:      5  79  79
1720043938,103:   1080  79  79
1720043938,103:   2046  79  79
1720043938,103:   1531  79  79
1720043938,103:     62  79  79
1720043938,103:   -585  79  79
1720043938,103:    285  79  79
1720043938,103:   1441  79  79
1720043938,103:   1390  79  79
1720043938,103:    356  79  79
1720043938,103:    -64  79  79
1720043938,103:    869  79  79
1720043938,103:   2000  79  79
1720043938,103:   1780  79  79
1720043938,103:    360  79  79
1720043938,133:   -541  79  79
1720043938,133:     97  79  79
1720043938,133:   1320  79  79
1720043938,133:   1502  79  79
1720043938,133:    512  79  79
1720043938,133:   -138  79  79
1720043938,133:    602  79  79
1720043938,133:   1866  79  79
1720043938,133:   1979  79  79
1720043938,133:    698  79  79
1720043938,133:   -406  79  79
1720043938,133:    -26  79  79
1720043938,133:   1214  79  79
1720043938,133:   1638  79  79
1720043938,133:    754  79  79
1720043938,164:   -102  79  79
1720043938,164:    369  79  79
1720043938,164:   1635  79  79
1720043938,164:   2010  79  79
1720043938,164:    893  79  79
1720043938,164:   -362  79  79
1720043938,164:   -239  79  79
1720043938,164:    982  79  79
1720043938,164:   1654  79  79
1720043938,164:    954  79  79
1720043938,164:    -16  79  79
1720043938,164:    219  79  79
1720043938,164:   1470  79  79
1720043938,164:   2100  79  79
1720043938,164:   1182  79  79
1720043938,195:   -203  79  79
1720043938,195:   -380  79  79
1720043938,195:    735  79  79
1720043938,195:   1598  79  79
1720043938,195:   1102  79  79
1720043938,195:     61  79  79
1720043938,195:     56  79  79
1720043938,195:   1238  79  79
1720043938,195:   2082  79  79
1720043938,195:   1386  79  79
1720043938,195:    -68  79  79
1720043938,195:   -515  79  79
1720043938,195:    476  79  79
1720043938,195:   1504  79  79
1720043938,195:   1216  79  79
1720043938,226:    117  79  79
1720043938,226:   -143  79  79
1720043938,226:    940  79  79
1720043938,226:   2005  79  79
1720043938,226:   1600  79  79
1720043938,226:    148  79  79
1720043938,226:   -569  79  79
1720043938,226:    236  79  79
1720043938,226:   1391  79  79
1720043938,226:   1353  79  79
1720043938,226:    277  79  79
1720043938,226:   -218  79  79
1720043938,226:    694  79  79
1720043938,226:   1892  79  79
1720043938,226:   1755  79  79
1720043938,258:    341  79  79
1720043938,258:   -628  79  79
1720043938,258:    -44  79  79
1720043938,258:   1195  79  79
1720043938,258:   1419  79  79
1720043938,258:    415  79  79
1720043938,258:   -306  79  79
1720043938,258:    385  79  79
1720043938,258:   1678  79  79
1720043938,258:   1861  79  79
1720043938,258:    604  79  79
1720043938,258:   -543  79  79
1720043938,258:   -215  79  79
1720043938,258:   1024  79  79
1720043938,258:   1482  79  79
1720043938,258:    604  79  79
1720043938,258:   -287  79  79
1720043938,258:    163  79  79
1720043938,258:   1469  79  79
1720043938,258:   1914  79  79
1720043938,258:    817  79  79
1720043938,258:   -499  79  79
1720043938,258:   -458  79  79
1720043938,290:    732  79  79
1720043938,290:   1429  79  79
1720043938,290:    753  79  79
1720043938,290:   -242  79  79
1720043938,290:    -59  79  79
1720043938,290:   1169  79  79
1720043938,290:   1820  79  79
1720043938,321:    929  79  79
1720043938,321:   -454  79  79
1720043938,321:   -640  79  79
1720043938,321:    491  79  79
1720043938,321:   1396  79  79
1720043938,321:    928  79  79
1720043938,321:   -135  79  79
1720043938,321:   -191  79  79
1720043938,321:    967  79  79
1720043938,321:   1839  79  79
1720043938,321:   1184  79  79
1720043938,321:   -268  79  79
1720043938,321:   -758  79  79
1720043938,321:    197  79  79
1720043938,321:   1244  79  79
1720043938,321:   1016  79  79
1720043938,321:    -42  79  79
1720043938,321:   -318  79  79
1720043938,321:    719  79  79
1720043938,321:   1765  79  79
1720043938,321:   1377  79  79
1720043938,321:    -56  79  79
1720043938,321:   -784  79  79
1720043938,352:      1  79  79
1720043938,352:   1165  79  79
1720043938,352:   1172  79  79
1720043938,352:    133  79  79
1720043938,352:   -371  79  79
1720043938,352:    509  79  79
1720043938,352:   1704  79  79
1720043938,352:   1610  79  79
1720043938,352:    239  79  79
1720043938,352:   -734  79  79
1720043938,352:   -192  79  79
1720043938,352:   1020  79  79
1720043938,352:   1261  79  79
1720043938,352:    287  79  79
1720043938,352:   -430  79  79
1720043938,384:    240  79  79
1720043938,384:   1522  79  79
1720043938,384:   1723  79  79
1720043938,384:    485  79  79
1720043938,384:   -674  79  79
1720043938,384:   -369  79  79
1720043938,384:    878  79  79
1720043938,384:   1388  79  79
1720043938,384:    561  79  79
1720043938,384:   -332  79  79
1720043938,384:     64  79  79
1720043938,384:   1327  79  79
1720043938,384:   1786  79  79
1720043938,384:    742  79  79
1720043938,384:   -531  79  79
1720043938,414:   -475  79  79
1720043938,414:    727  79  79
1720043938,414:   1453  79  79
1720043938,414:    803  79  79
1720043938,414:   -212  79  79
1720043938,414:    -85  79  79
1720043938,414:   1109  79  79
1720043938,414:   1797  79  79
1720043938,414:    987  79  79
1720043938,414:   -347  79  79
1720043938,414:   -536  79  79
1720043938,414:    594  79  79
1720043938,414:   1564  79  79
1720043938,414:   1201  79  79
1720043938,414:    185  79  79
1720043938,446:     61  79  79
1720043938,446:   1097  79  79
1720043938,446:   1904  79  79
1720043938,446:   1278  79  79
1720043938,446:   -128  79  79
1720043938,446:   -624  79  79
1720043938,446:    297  79  79
1720043938,446:   1362  79  79
1720043938,446:   1223  79  79
1720043938,446:    233  79  79
1720043938,446:    -77  79  79
1720043938,446:    854  79  79
1720043938,446:   1831  79  79
1720043938,446:   1466  79  79
1720043938,446:     75  79  79
1720043938,478:   -678  79  79
1720043938,478:     29  79  79
1720043938,478:   1157  79  79
1720043938,478:   1216  79  79
1720043938,478:    243  79  79
1720043938,478:   -277  79  79
1720043938,478:    507  79  79
1720043938,478:   1632  79  79
1720043938,478:   1567  79  79
1720043938,478:    279  79  79
1720043938,478:   -653  79  79
1720043938,478:   -133  79  79
1720043938,478:   1064  79  79
1720043938,478:   1348  79  79
1720043938,478:    433  79  79
1720043938,478:   -293  79  79
1720043938,478:    297  79  79
1720043938,478:   1516  79  79
1720043938,478:   1742  79  79
1720043938,478:    576  79  79
1720043938,478:   -563  79  79
1720043938,478:   -316  79  79
1720043938,509:    871  79  79
1720043938,509:   1394  79  79
1720043938,509:    631  79  79
1720043938,509:   -234  79  79
1720043938,509:    131  79  79
1720043938,509:   1364  79  79
1720043938,509:   1850  79  79
1720043938,509:    863  79  79
1720043938,540:   -410  79  79
1720043938,540:   -423  79  79
1720043938,540:    717  79  79
1720043938,540:   1456  79  79
1720043938,540:    866  79  79
1720043938,540:   -111  79  79
1720043938,540:     13  79  79
1720043938,540:   1219  79  79
1720043938,540:   1966  79  79
1720043938,540:   1201  79  79
1720043938,540:   -186  79  79
1720043938,540:   -522  79  79
1720043938,540:    469  79  79
1720043938,540:   1383  79  79
1720043938,540:   1001  79  79
1720043938,573:    -91  79  79
1720043938,573:   -344  79  79
1720043938,573:    622  79  79
1720043938,573:   1532  79  79
1720043938,573:   1184  79  79
1720043938,573:    145  79  79
1720043938,573:    101  79  79
1720043938,573:   1692  79  79
1720043938,573:   3777  79  79
1720043938,573:   4932  79  79
1720043938,573:   5224  79  79
1720043938,573:   5919  79  79
1720043938,573:   7558  79  79
1720043938,573:   9124  79  79
1720043938,573:   9294  79  79
1720043938,573:   8137  79  79
1720043938,573:   6934  79  79
1720043938,573:   6382  79  79
1720043938,573:   5773  79  79
1720043938,573:   4158  79  79
1720043938,573:   1897  79  79
1720043938,573:    406  79  79
1720043938,634:    304  80  78
1720043938,634:    546  80  78
1720043938,634:   -251  80  78
1720043938,634:  -1917  80  78
1720043938,634:  -2823  80  78
1720043938,634:  -1994  80  78
1720043938,634:   -399  80  78
1720043938,634:    210  80  78
1720043938,634:   -548  80  78
1720043938,634:  -1284  80  78
1720043938,634:   -782  80  78
1720043938,634:    373  80  78
1720043938,634:    587  80  78
1720043938,634:   -592  80  78
1720043938,634:  -1797  80  78
1720043938,634:  -1647  80  78
1720043938,634:   -530  80  78
1720043938,634:    -19  80  78
1720043938,634:   -773  80  78
1720043938,634:  -1642  80  78
1720043938,634:  -1267  80  78
1720043938,634:     26  80  78
1720043938,634:    599  80  78
1720043938,634:   -349  80  78
1720043938,634:  -1667  80  78
1720043938,634:  -1756  80  78
1720043938,634:   -642  80  78
1720043938,634:    148  80  78
1720043938,634:   -358  80  78
1720043938,634:  -1273  80  78
1720043938,665:  -1104  80  78
1720043938,665:    160  80  78
1720043938,665:    971  80  78
1720043938,665:    236  80  78
1720043938,665:  -1173  80  78
1720043938,665:  -1532  80  78
1720043938,665:   -512  80  78
1720043938,665:    477  80  78
1720043938,695:    174  80  78
1720043938,695:   -851  80  78
1720043938,695:  -1014  80  78
1720043938,695:     85  80  78
1720043938,695:   1085  80  78
1720043938,695:    644  80  78
1720043938,695:   -734  80  78
1720043938,695:  -1331  80  78
1720043938,695:   -480  80  78
1720043938,695:    625  80  78
1720043938,695:    544  80  78
1720043938,695:   -488  80  78
1720043938,695:   -901  80  78
1720043938,695:     22  80  78
1720043938,695:   1155  80  78
1720043938,695:    988  80  78
1720043938,695:   -334  80  78
1720043938,695:  -1150  80  78
1720043938,695:   -490  80  78
1720043938,695:    710  80  78
1720043938,695:    887  80  78
1720043938,695:    -65  80  78
1720043938,726:   -672  80  78
1720043938,726:     63  80  78
1720043938,726:   1281  80  78
1720043938,726:   1369  80  78
1720043938,726:    119  80  78
1720043938,726:   -932  80  78
1720043938,726:   -535  80  78
1720043938,726:    684  80  78
1720043938,726:   1101  80  78
1720043938,726:    260  80  78
1720043938,726:   -541  80  78
1720043938,726:    -63  80  78
1720043938,726:   1165  80  78
1720043938,726:   1523  80  78
1720043938,726:    454  80  78
1720043938,756:   -731  80  78
1720043938,756:   -589  80  78
1720043938,756:    588  80  78
1720043938,756:   1224  80  78
1720043938,756:    560  80  78
1720043938,756:   -345  80  78
1720043938,756:   -103  80  78
1720043938,756:   1080  80  78
1720043938,756:   1648  80  78
1720043938,756:    757  80  78
1720043938,756:   -536  80  78
1720043938,756:   -657  80  78
1720043938,756:    432  80  78
1720043938,756:   1245  80  78
1720043938,756:    762  80  78
1720043938,787:   -217  80  78
1720043938,787:   -199  80  78
1720043938,787:    929  80  78
1720043938,787:   1711  80  78
1720043938,787:   1034  80  78
1720043938,787:   -333  80  78
1720043938,787:   -726  80  78
1720043938,787:    233  80  78
1720043938,787:   1209  80  78
1720043938,787:    939  80  78
1720043938,787:    -82  80  78
1720043938,787:   -315  80  78
1720043938,787:    687  80  78
1720043938,787:   1648  80  78
1720043938,787:   1237  80  78
1720043938,819:   -123  80  78
1720043938,819:   -772  80  78
1720043938,819:     -8  80  78
1720043938,819:   1060  80  78
1720043938,819:   1015  80  78
1720043938,819:     21  80  78
1720043938,819:   -426  80  78
1720043938,819:    418  80  78
1720043938,819:   1508  80  78
1720043938,819:   1367  80  78
1720043938,819:     77  80  78
1720043938,819:   -778  80  78
1720043938,819:   -207  80  78
1720043938,819:    944  80  78
1720043938,819:   1148  80  78
1720043938,866:    233  80  78
1720043938,866:   -413  80  78
1720043938,866:    220  80  78
1720043938,866:   1374  80  78
1720043938,866:   1499  80  78
1720043938,866:    333  80  78
1720043938,866:   -687  80  78
1720043938,866:   -332  80  78
1720043938,866:    846  80  78
1720043938,866:   1286  80  78
1720043938,866:    497  80  78
1720043938,866:   -295  80  78
1720043938,866:    139  80  78
1720043938,866:   1331  80  78
1720043938,866:   1709  80  78
1720043938,866:    682  80  78
1720043938,866:   -506  80  78
1720043938,866:   -421  80  78
1720043938,866:    710  80  78
1720043938,866:   1357  80  78
1720043938,866:    728  80  78
1720043938,866:   -170  80  78
1720043938,866:     45  80  78
1720043938,866:   1218  80  78
1720043938,866:   1819  80  78
1720043938,866:    968  80  78
1720043938,866:   -335  80  78
1720043938,866:   -510  80  78
1720043938,866:    536  80  78
1720043938,866:   1358  80  78
1720043938,897:    898  80  78
1720043938,897:    -99  80  78
1720043938,897:   -135  80  78
1720043938,897:    966  80  78
1720043938,897:   1790  80  78
1720043938,897:   1190  80  78
1720043938,897:   -141  80  78
1720043938,897:   -563  80  78
1720043938,897:    351  80  78
1720043938,897:   1320  80  78
1720043938,897:   1084  80  78
1720043938,897:     84  80  78
1720043938,897:   -164  80  78
1720043938,897:    819  80  78
1720043938,897:   1796  80  78
1720043938,929:   1432  80  78
1720043938,929:    106  80  78
1720043938,929:   -549  80  78
1720043938,929:    192  80  78
1720043938,929:   1260  80  78
1720043938,929:   1244  80  78
1720043938,929:    277  80  78
1720043938,929:   -165  80  78
1720043938,929:    674  80  78
1720043938,929:   1781  80  78
1720043938,929:   1678  80  78
1720043938,929:    412  80  78
1720043938,929:   -453  80  78
1720043938,929:     85  80  78
1720043938,929:   1209  80  78
1720043938,960:   1406  80  78
1720043938,960:    490  80  78
1720043938,960:   -159  80  78
1720043938,960:    477  80  78
1720043938,960:   1649  80  78
1720043938,960:   1794  80  78
1720043938,960:    618  80  78
1720043938,960:   -447  80  78
1720043938,960:   -139  80  78
1720043938,960:   1019  80  78
1720043938,960:   1468  80  78
1720043938,960:    684  80  78
1720043938,960:   -125  80  78
1720043938,960:    288  80  78
1720043938,960:   1489  80  78
1720043938,992:   1907  80  78
1720043938,992:    914  80  78
1720043938,992:   -279  80  78
1720043938,992:   -226  80  78
1720043938,992:    876  80  78
1720043938,992:   1514  80  78
1720043938,992:    883  80  78
1720043938,992:    -39  80  78
1720043938,992:    141  80  78
1720043938,992:   1294  80  78
1720043938,992:   1909  80  78
1720043938,992:   1081  80  78
1720043938,992:   -221  80  78
1720043938,992:   -417  80  78
1720043938,992:    619  80  78
1720043938,992:   1457  80  78
1720043938,992:   1018  80  78
1720043938,992:     14  80  78
1720043938,992:    -57  80  78
1720043938,992:   1018  80  78
1720043938,992:   1849  80  78
1720043938,992:   1266  80  78
1720043938,992:    -78  80  78
1720043939,024:   -541  80  78
1720043939,024:    342  80  78
1720043939,024:   1318  80  78
1720043939,024:   1102  80  78
1720043939,024:     97  80  78
1720043939,024:   -185  80  78
1720043939,024:    770  80  78
1720043939,055:   1754  80  78
1720043939,055:   1407  80  78
1720043939,055:     66  80  78
1720043939,055:   -628  80  78
1720043939,055:     96  80  78
1720043939,055:   1190  80  78
1720043939,055:   1207  80  78
1720043939,055:    230  80  78
1720043939,055:   -260  80  78
1720043939,055:    549  80  78
1720043939,055:   1673  80  78
1720043939,055:   1605  80  78
1720043939,055:    334  80  78
1720043939,055:   -581  80  78
1720043939,055:    -84  80  78
1720043939,086:   1046  80  78
1720043939,086:   1272  80  78
1720043939,086:    356  80  78
1720043939,086:   -332  80  78
1720043939,086:    280  80  78
1720043939,086:   1481  80  78
1720043939,086:   1685  80  78
1720043939,086:    537  80  78
1720043939,086:   -553  80  78
1720043939,086:   -273  80  78
1720043939,086:    905  80  78
1720043939,086:   1408  80  78
1720043939,086:    650  80  78
1720043939,086:   -193  80  78
1720043939,086:    169  80  78
1720043939,086:   1362  80  78
1720043939,086:   1815  80  78
1720043939,086:    840  80  78
1720043939,086:   -385  80  78
1720043939,086:   -373  80  78
1720043939,117:    740  80  78
1720043939,117:   1438  80  78
1720043939,117:    845  80  78
1720043939,117:   -103  80  78
1720043939,117:     29  80  78
1720043939,117:   1185  80  78
1720043939,117:   1863  80  78
1720043939,117:   1089  80  78
1720043939,117:   -227  80  78
1720043939,117:   -471  80  78
1720043939,117:    550  80  78
1720043939,117:   1428  80  78
1720043939,117:   1034  80  78
1720043939,117:     26  80  78
1720043939,117:    -78  80  78
1720043939,149:    991  80  78
1720043939,149:   1859  80  78
1720043939,149:   1308  80  78
1720043939,149:    -57  80  78
1720043939,149:   -569  80  78
1720043939,149:    300  80  78
1720043939,149:   1318  80  78
1720043939,149:   1147  80  78
1720043939,149:    130  80  78
1720043939,149:   -198  80  78
1720043939,149:    759  80  78
1720043939,149:   1827  80  78
1720043939,149:   1589  80  78
1720043939,149:    291  80  78
1720043939,149:   -437  80  78
1720043939,180:    258  80  78
1720043939,180:   1393  80  78
1720043939,180:   1478  80  78
1720043939,180:    504  80  78
1720043939,180:    -73  80  78
1720043939,180:    646  80  78
1720043939,180:   1764  80  78
1720043939,180:   1751  80  78
1720043939,180:    498  80  78
1720043939,180:   -473  80  78
1720043939,180:    -35  80  78
1720043939,180:   1114  80  78
1720043939,180:   1411  80  78
1720043939,180:    515  80  78
1720043939,180:   -243  80  78
1720043939,211:    283  80  78
1720043939,211:   1474  80  78
1720043939,211:   1727  80  78
1720043939,211:    588  80  78
1720043939,211:   -581  80  78
1720043939,211:   -398  80  78
1720043939,211:    758  80  78
1720043939,211:   1308  80  78
1720043939,211:    576  80  78
1720043939,211:   -312  80  78
1720043939,211:     -4  80  78
1720043939,211:   1209  80  78
1720043939,211:   1748  80  78
1720043939,211:    827  80  78
1720043939,211:   -438  80  78
1720043939,211:   -499  80  78
1720043939,211:    607  80  78
1720043939,211:   1372  80  78
1720043939,211:    824  80  78
1720043939,211:   -171  80  78
1720043939,211:   -125  80  78
1720043939,211:   1024  80  78
1720043939,242:   1796  80  78
1720043939,242:   1111  80  78
1720043939,242:   -228  80  78
1720043939,242:   -573  80  78
1720043939,242:    410  80  78
1720043939,242:   1373  80  78
1720043939,242:   1088  80  78
1720043939,242:     71  80  78
1720043939,242:   -163  80  78
1720043939,242:    794  80  78
1720043939,242:   1684  80  78
1720043939,242:   1242  80  78
1720043939,242:    -62  80  78
1720043939,242:   -608  80  78
1720043939,242:    225  80  78
1720043939,273:   1293  80  78
1720043939,273:   1230  80  78
1720043939,273:    270  80  78
1720043939,273:    -97  80  78
1720043939,273:    796  80  78
1720043939,273:   1855  80  78
1720043939,273:   1632  80  78
1720043939,273:    286  80  78
1720043939,304:   -569  80  78
1720043939,304:     17  80  78
1720043939,304:   1142  80  78
1720043939,304:   1276  80  78
1720043939,304:    290  80  78
1720043939,304:   -395  80  78
1720043939,304:    240  80  78
1720043939,304:   1458  80  78
1720043939,304:   1771  80  78
1720043939,304:    987  80  78
1720043939,304:    592  80  78
1720043939,304:   1846  80  78
1720043939,304:   4174  80  78
1720043939,304:   5892  80  78
1720043939,304:   6286  80  78
1720043939,365:   6394  82  79
1720043939,365:   7442  82  79
1720043939,365:   9113  82  79
1720043939,365:   9855  82  79
1720043939,365:   8797  82  79
1720043939,365:   6795  82  79
1720043939,365:   5235  82  79
1720043939,365:   4358  82  79
1720043939,365:   3270  82  79
1720043939,365:   1450  82  79
1720043939,365:   -341  82  79
1720043939,365:  -1069  82  79
1720043939,365:   -884  82  79
1720043939,365:   -950  82  79
1720043939,365:  -1852  82  79
1720043939,365:  -2692  82  79
1720043939,365:  -2278  82  79
1720043939,365:   -816  82  79
1720043939,365:    207  82  79
1720043939,365:   -161  82  79
1720043939,365:  -1117  82  79
1720043939,365:  -1191  82  79
1720043939,365:   -202  82  79
1720043939,365:    522  82  79
1720043939,365:    -92  82  79
1720043939,365:  -1375  82  79
1720043939,365:  -1781  82  79
1720043939,365:   -924  82  79
1720043939,365:    -22  82  79
1720043939,365:   -261  82  79
1720043939,365:  -1191  82  79
1720043939,365:  -1364  82  79
1720043939,365:   -364  82  79
1720043939,365:    570  82  79
1720043939,365:    151  82  79
1720043939,365:  -1202  82  79
1720043939,365:  -1857  82  79
1720043939,396:  -1094  82  79
1720043939,396:     24  82  79
1720043939,396:     92  82  79
1720043939,396:   -781  82  79
1720043939,396:  -1163  82  79
1720043939,396:   -318  82  79
1720043939,396:    763  82  79
1720043939,396:    650  82  79
1720043939,427:   -590  82  79
1720043939,427:  -1420  82  79
1720043939,427:   -862  82  79
1720043939,427:    275  82  79
1720043939,427:    503  82  79
1720043939,427:   -348  82  79
1720043939,427:   -919  82  79
1720043939,427:   -222  82  79
1720043939,427:    980  82  79
1720043939,427:   1141  82  79
1720043939,427:    -12  82  79
1720043939,427:  -1051  82  79
1720043939,427:   -737  82  79
1720043939,427:    404  82  79
1720043939,427:    830  82  79
1720043939,427:     42  82  79
1720043939,427:   -748  82  79
1720043939,427:   -307  82  79
1720043939,427:    923  82  79
1720043939,427:   1376  82  79
1720043939,427:    430  82  79
1720043939,427:   -715  82  79
1720043939,458:   -629  82  79
1720043939,458:    488  82  79
1720043939,458:   1131  82  79
1720043939,458:    502  82  79
1720043939,458:   -419  82  79
1720043939,458:   -238  82  79
1720043939,458:    935  82  79
1720043939,458:   1597  82  79
1720043939,458:    831  82  79
1720043939,458:   -429  82  79
1720043939,458:   -625  82  79
1720043939,458:    383  82  79
1720043939,458:   1203  82  79
1720043939,458:    779  82  79
1720043939,458:   -187  82  79
1720043939,490:   -225  82  79
1720043939,490:    871  82  79
1720043939,490:   1728  82  79
1720043939,490:   1187  82  79
1720043939,490:   -112  82  79
1720043939,490:   -554  82  79
1720043939,490:    323  82  79
1720043939,490:   1289  82  79
1720043939,490:   1083  82  79
1720043939,490:    101  82  79
1720043939,490:   -171  82  79
1720043939,490:    778  82  79
1720043939,490:   1760  82  79
1720043939,490:   1435  82  79
1720043939,490:    134  82  79
1720043939,521:   -537  82  79
1720043939,521:    175  82  79
1720043939,521:   1240  82  79
1720043939,521:   1237  82  79
1720043939,521:    255  82  79
1720043939,521:   -240  82  79
1720043939,521:    559  82  79
1720043939,521:   1684  82  79
1720043939,521:   1636  82  79
1720043939,521:    393  82  79
1720043939,521:   -516  82  79
1720043939,521:    -40  82  79
1720043939,521:   1068  82  79
1720043939,521:   1295  82  79
1720043939,521:    395  82  79
1720043939,552:   -298  82  79
1720043939,552:    274  82  79
1720043939,552:   1427  82  79
1720043939,552:   1613  82  79
1720043939,552:    487  82  79
1720043939,552:   -577  82  79
1720043939,552:   -310  82  79
1720043939,552:    821  82  79
1720043939,552:   1282  82  79
1720043939,552:    516  82  79
1720043939,552:   -313  82  79
1720043939,552:     52  82  79
1720043939,552:   1237  82  79
1720043939,552:   1704  82  79
1720043939,552:    781  82  79
1720043939,583:   -392  82  79
1720043939,583:   -377  82  79
1720043939,583:    692  82  79
1720043939,583:   1355  82  79
1720043939,583:    773  82  79
1720043939,583:   -151  82  79
1720043939,583:    -44  82  79
1720043939,583:   1034  82  79
1720043939,583:   1647  82  79
1720043939,583:    879  82  79
1720043939,583:   -383  82  79
1720043939,583:   -597  82  79
1720043939,583:    404  82  79
1720043939,583:   1250  82  79
1720043939,583:    856  82  79
1720043939,583:   -134  82  79
1720043939,583:   -249  82  79
1720043939,583:    774  82  79
1720043939,583:   1613  82  79
1720043939,583:   1089  82  79
1720043939,583:   -221  82  79
1720043939,583:   -713  82  79
1720043939,583:    129  82  79
1720043939,614:   1126  82  79
1720043939,614:    992  82  79
1720043939,614:     45  82  79
1720043939,614:   -262  82  79
1720043939,614:    627  82  79
1720043939,614:   1586  82  79
1720043939,614:   1281  82  79
1720043939,614:    -15  82  79
1720043939,614:   -727  82  79
1720043939,614:    -56  82  79
1720043939,614:   1029  82  79
1720043939,614:   1106  82  79
1720043939,614:    188  82  79
1720043939,614:   -318  82  79
1720043939,614:    419  82  79
1720043939,645:   1507  82  79
1720043939,645:   1484  82  79
1720043939,645:    277  82  79
1720043939,645:   -636  82  79
1720043939,645:   -187  82  79
1720043939,645:    930  82  79
1720043939,645:   1222  82  79
1720043939,675:    384  82  79
1720043939,675:   -299  82  79
1720043939,675:    251  82  79
1720043939,675:   1417  82  79
1720043939,675:   1668  82  79
1720043939,675:    590  82  79
1720043939,675:   -500  82  79
1720043939,675:   -297  82  79
1720043939,675:    812  82  79
1720043939,675:   1314  82  79
1720043939,675:    588  82  79
1720043939,675:   -264  82  79
1720043939,675:     47  82  79
1720043939,675:   1216  82  79
1720043939,675:   1714  82  79
1720043939,675:    804  82  79
1720043939,675:   -419  82  79
1720043939,675:   -468  82  79
1720043939,675:    601  82  79
1720043939,675:   1326  82  79
1720043939,675:    786  82  79
1720043939,675:   -172  82  79
1720043939,675:   -119  82  79
1720043939,706:    984  82  79
1720043939,706:   1712  82  79
1720043939,706:   1046  82  79
1720043939,706:   -222  82  79
1720043939,706:   -530  82  79
1720043939,706:    402  82  79
1720043939,706:   1272  82  79
1720043939,706:    948  82  79
1720043939,706:    -16  82  79
1720043939,706:   -164  82  79
1720043939,706:    837  82  79
1720043939,706:   1717  82  79
1720043939,706:   1263  82  79
1720043939,706:    -26  82  79
1720043939,706:   -556  82  79
1720043939,738:    248  82  79
1720043939,738:   1252  82  79
1720043939,738:   1134  82  79
1720043939,738:    150  82  79
1720043939,738:   -228  82  79
1720043939,738:    641  82  79
1720043939,738:   1679  82  79
1720043939,738:   1483  82  79
1720043939,738:    214  82  79
1720043939,738:   -570  82  79
1720043939,738:     22  82  79
1720043939,738:   1104  82  79
1720043939,738:   1222  82  79
1720043939,738:    300  82  79
1720043939,738:   -280  82  79
1720043939,770:    395  82  79
1720043939,770:   1502  82  79
1720043939,770:   1544  82  79
1720043939,770:    356  82  79
1720043939,770:   -611  82  79
1720043939,770:   -212  82  79
1720043939,770:    934  82  79
1720043939,770:   1304  82  79
1720043939,770:    496  82  79
1720043939,770:   -249  82  79
1720043939,770:    217  82  79
1720043939,770:   1366  82  79
1720043939,770:   1664  82  79
1720043939,770:    614  82  79
1720043939,770:   -518  82  79
1720043939,801:   -372  82  79
1720043939,801:    757  82  79
1720043939,801:   1359  82  79
1720043939,801:    723  82  79
1720043939,801:   -131  82  79
1720043939,801:    112  82  79
1720043939,801:   1237  82  79
1720043939,801:   1755  82  79
1720043939,801:    870  82  79
1720043939,801:   -392  82  79
1720043939,801:   -526  82  79
1720043939,801:    497  82  79
1720043939,801:   1260  82  79
1720043939,801:    793  82  79
1720043939,801:   -130  82  79
1720043939,801:    -88  82  79
1720043939,801:   1012  82  79
1720043939,801:   1765  82  79
1720043939,801:   1110  82  79
1720043939,801:   -212  82  79
1720043939,801:   -602  82  79
1720043939,801:    302  82  79
1720043939,832:   1232  82  79
1720043939,832:    988  82  79
1720043939,832:     34  82  79
1720043939,832:   -176  82  79
1720043939,832:    776  82  79
1720043939,832:   1682  82  79
1720043939,832:   1294  82  79
1720043939,832:     26  82  79
1720043939,863:   -553  82  79
1720043939,863:    202  82  79
1720043939,863:   1224  82  79
1720043939,863:   1174  82  79
1720043939,863:    229  82  79
1720043939,863:   -187  82  79
1720043939,863:    614  82  79
1720043939,863:   1629  82  79
1720043939,863:   1469  82  79
1720043939,863:    240  82  79
1720043939,863:   -550  82  79
1720043939,863:     14  82  79
1720043939,863:   1102  82  79
1720043939,863:   1277  82  79
1720043939,863:    416  82  79
1720043939,894:   -144  82  79
1720043939,894:    516  82  79
1720043939,894:   1621  82  79
1720043939,894:   1697  82  79
1720043939,894:    545  82  79
1720043939,894:   -418  82  79
1720043939,894:    -33  82  79
1720043939,894:   1112  82  79
1720043939,894:   1494  82  79
1720043939,894:    669  82  79
1720043939,894:   -148  82  79
1720043939,894:    235  82  79
1720043939,894:   1355  82  79
1720043939,894:   1691  82  79
1720043939,894:    682  82  79
1720043939,894:   -474  82  79
1720043939,894:   -399  82  79
1720043939,894:    683  82  79
1720043939,894:   1301  82  79
1720043939,894:    695  82  79
1720043939,894:   -186  82  79
1720043939,894:    -25  82  79
1720043939,926:   1040  82  79
1720043939,926:   1581  82  79
1720043939,926:    771  82  79
1720043939,926:   -448  82  79
1720043939,926:   -599  82  79
1720043939,926:    402  82  79
1720043939,926:   1196  82  79
1720043939,926:    792  82  79
1720043939,926:   -120  82  79
1720043939,926:   -149  82  79
1720043939,926:    867  82  79
1720043939,926:   1610  82  79
1720043939,926:   1018  82  79
1720043939,926:   -251  82  79
1720043939,926:   -656  82  79
1720043939,957:    203  82  79
1720043939,957:   1125  82  79
1720043939,957:    910  82  79
1720043939,957:    -39  82  79
1720043939,957:   -297  82  79
1720043939,957:    609  82  79
1720043939,957:   1538  82  79
1720043939,957:   1225  82  79
1720043939,957:     -2  82  79
1720043939,957:   -620  82  79
1720043939,957:     70  82  79
1720043939,957:   1079  82  79
1720043939,957:   1068  82  79
1720043939,957:    146  82  79
1720043939,957:   -294  82  79
1720043939,988:    482  82  79
1720043939,988:   1526  82  79
1720043939,988:   1435  82  79
1720043939,988:    244  82  79
1720043939,988:   -562  82  79
1720043939,988:    -14  82  79
1720043939,988:   1109  82  79
1720043939,988:   1338  82  79
1720043939,988:    463  82  79
1720043939,988:   -197  82  79
1720043939,988:    377  82  79
1720043939,988:   1498  82  79
1720043939,988:   1650  82  79
1720043939,988:    505  82  79
1720043939,988:   -586  82  79
1720043940,019:   -363  82  79
1720043940,019:    762  82  79
1720043940,019:   1355  82  79
1720043940,019:    924  82  79
1720043940,019:    636  82  79
1720043940,019:   1742  82  79
1720043940,019:   3878  82  79
1720043940,019:   5453  82  79
1720043940,019:   5621  82  79
1720043940,019:   5295  82  79
1720043940,019:   5826  82  79
1720043940,019:   7211  82  79
1720043940,019:   8125  82  79
1720043940,019:   7610  82  79
1720043940,019:   6206  82  79
1720043940,083:   5062  85  82
1720043940,083:   4367  85  82
1720043940,083:   3281  85  82
1720043940,083:   1333  85  82
1720043940,083:   -649  85  82
1720043940,083:  -1508  85  82
1720043940,083:  -1286  85  82
1720043940,083:  -1146  85  82
1720043940,083:  -1808  85  82
1720043940,083:  -2520  85  82
1720043940,083:  -2075  85  82
1720043940,083:   -561  85  82
1720043940,083:    542  85  82
1720043940,083:    120  85  82
1720043940,083:  -1147  85  82
1720043940,083:  -1650  85  82
1720043940,083:   -893  85  82
1720043940,083:     -4  85  82
1720043940,083:   -173  85  82
1720043940,083:  -1050  85  82
1720043940,083:  -1259  85  82
1720043940,083:   -336  85  82
1720043940,083:    600  85  82
1720043940,083:    293  85  82
1720043940,083:   -928  85  82
1720043940,083:  -1530  85  82
1720043940,083:   -806  85  82
1720043940,083:    234  85  82
1720043940,083:    221  85  82
1720043940,083:   -748  85  82
1720043940,083:  -1242  85  82
1720043940,083:   -473  85  82
1720043940,083:    640  85  82
1720043940,083:    660  85  82
1720043940,083:   -445  85  82
1720043940,114:  -1230  85  82
1720043940,114:   -713  85  82
1720043940,114:    371  85  82
1720043940,114:    591  85  82
1720043940,114:   -264  85  82
1720043940,114:   -900  85  82
1720043940,114:   -314  85  82
1720043940,114:    831  85  82
1720043940,114:   1056  85  82
1720043940,114:     35  85  82
1720043940,114:   -928  85  82
1720043940,114:   -641  85  82
1720043940,114:    436  85  82
1720043940,114:    852  85  82
1720043940,114:    107  85  82
1720043940,145:   -668  85  82
1720043940,145:   -274  85  82
1720043940,145:    909  85  82
1720043940,145:   1393  85  82
1720043940,145:    528  85  82
1720043940,145:   -592  85  82
1720043940,145:   -587  85  82
1720043940,145:    429  85  82
1720043940,145:   1072  85  82
1720043940,145:    546  85  82
1720043940,145:   -292  85  82
1720043940,145:   -141  85  82
1720043940,145:    933  85  82
1720043940,145:   1557  85  82
1720043940,145:    858  85  82
1720043940,177:   -312  85  82
1720043940,177:   -490  85  82
1720043940,177:    468  85  82
1720043940,177:   1249  85  82
1720043940,177:    839  85  82
1720043940,177:   -107  85  82
1720043940,177:   -163  85  82
1720043940,177:    896  85  82
1720043940,177:   1755  85  82
1720043940,177:   1264  85  82
1720043940,177:      0  85  82
1720043940,177:   -467  85  82
1720043940,177:    358  85  82
1720043940,177:   1302  85  82
1720043940,177:   1109  85  82
1720043940,208:    125  85  82
1720043940,208:   -184  85  82
1720043940,208:    741  85  82
1720043940,208:   1766  85  82
1720043940,208:   1528  85  82
1720043940,208:    265  85  82
1720043940,208:   -454  85  82
1720043940,208:    193  85  82
1720043940,208:   1263  85  82
1720043940,208:   1334  85  82
1720043940,208:    408  85  82
1720043940,208:   -110  85  82
1720043940,208:    635  85  82
1720043940,208:   1756  85  82
1720043940,208:   1771  85  82
1720043940,239:    584  85  82
1720043940,239:   -330  85  82
1720043940,239:    110  85  82
1720043940,239:   1212  85  82
1720043940,239:   1465  85  82
1720043940,239:    569  85  82
1720043940,239:   -151  85  82
1720043940,239:    422  85  82
1720043940,239:   1653  85  82
1720043940,239:   1944  85  82
1720043940,239:    836  85  82
1720043940,239:   -331  85  82
1720043940,239:   -192  85  82
1720043940,239:    896  85  82
1720043940,239:   1391  85  82
1720043940,239:    635  85  82
1720043940,239:   -262  85  82
1720043940,239:     32  85  82
1720043940,239:   1237  85  82
1720043940,239:   1797  85  82
1720043940,239:    923  85  82
1720043940,239:   -314  85  82
1720043940,239:   -408  85  82
1720043940,271:    618  85  82
1720043940,271:   1311  85  82
1720043940,271:    737  85  82
1720043940,271:   -260  85  82
1720043940,271:   -226  85  82
1720043940,271:    895  85  82
1720043940,271:   1661  85  82
1720043940,271:   1010  85  82
1720043940,271:   -288  85  82
1720043940,271:   -641  85  82
1720043940,271:    271  85  82
1720043940,271:   1150  85  82
1720043940,271:    824  85  82
1720043940,271:   -182  85  82
1720043940,271:   -388  85  82
1720043940,302:    588  85  82
1720043940,302:   1491  85  82
1720043940,302:   1062  85  82
1720043940,302:   -244  85  82
1720043940,302:   -830  85  82
1720043940,302:    -74  85  82
1720043940,302:    917  85  82
1720043940,302:    804  85  82
1720043940,302:   -184  85  82
1720043940,302:   -570  85  82
1720043940,302:    319  85  82
1720043940,302:   1404  85  82
1720043940,302:   1242  85  82
1720043940,302:    -37  85  82
1720043940,302:   -849  85  82
1720043940,396:   -252  85  82
1720043940,396:    873  85  82
1720043940,396:   1027  85  82
1720043940,396:     89  85  82
1720043940,396:   -534  85  82
1720043940,396:    136  85  82
1720043940,396:   1299  85  82
1720043940,396:   1397  85  82
1720043940,396:    199  85  82
1720043940,396:   -833  85  82
1720043940,396:   -483  85  82
1720043940,396:    674  85  82
1720043940,396:   1081  85  82
1720043940,396:    280  85  82
1720043940,396:   -483  85  82
1720043940,396:     -3  85  82
1720043940,396:   1215  85  82
1720043940,396:   1586  85  82
1720043940,396:    554  85  82
1720043940,396:   -606  85  82
1720043940,396:   -478  85  82
1720043940,396:    657  85  82
1720043940,396:   1249  85  82
1720043940,396:    557  85  82
1720043940,396:   -336  85  82
1720043940,396:    -34  85  82
1720043940,396:   1230  85  82
1720043940,396:   1845  85  82
1720043940,396:    931  85  82
1720043940,396:   -431  85  82
1720043940,396:   -608  85  82
1720043940,396:    457  85  82
1720043940,396:   1244  85  82
1720043940,396:    697  85  82
1720043940,396:   -348  85  82
1720043940,396:   -326  85  82
1720043940,396:    894  85  82
1720043940,396:   1788  85  82
1720043940,396:   1161  85  82
1720043940,396:   -231  85  82
1720043940,396:   -667  85  82
1720043940,396:    277  85  82
1720043940,396:   1252  85  82
1720043940,396:    954  85  82
1720043940,396:   -123  85  82
1720043940,427:   -390  85  82
1720043940,427:    641  85  82
1720043940,427:   1674  85  82
1720043940,427:   1314  85  82
1720043940,427:    -49  85  82
1720043940,427:   -733  85  82
1720043940,427:     12  85  82
1720043940,427:   1095  85  82
1720043940,427:   1067  85  82
1720043940,427:     64  85  82
1720043940,427:   -409  85  82
1720043940,427:    429  85  82
1720043940,427:   1554  85  82
1720043940,427:   1465  85  82
1720043940,427:    198  85  82
1720043940,427:   -680  85  82
1720043940,427:   -153  85  82
1720043940,427:    962  85  82
1720043940,427:   1148  85  82
1720043940,427:    229  85  82
1720043940,427:   -399  85  82
1720043940,427:    282  85  82
1720043940,458:   1493  85  82
1720043940,458:   1644  85  82
1720043940,458:    447  85  82
1720043940,458:   -631  85  82
1720043940,458:   -311  85  82
1720043940,458:    867  85  82
1720043940,458:   1312  85  82
1720043940,458:    505  85  82
1720043940,458:   -319  85  82
1720043940,458:    102  85  82
1720043940,458:   1307  85  82
1720043940,458:   1693  85  82
1720043940,458:    643  85  82
1720043940,458:   -580  85  82
1720043940,458:   -499  85  82
1720043940,490:    668  85  82
1720043940,490:   1348  85  82
1720043940,490:    702  85  82
1720043940,490:   -265  85  82
1720043940,490:   -109  85  82
1720043940,490:   1070  85  82
1720043940,490:   1735  85  82
1720043940,490:    939  85  82
1720043940,520:   -370  85  82
1720043940,520:   -590  85  82
1720043940,520:    436  85  82
1720043940,520:   1292  85  82
1720043940,520:    884  85  82
1720043940,520:    -99  85  82
1720043940,520:   -168  85  82
1720043940,520:    893  85  82
1720043940,520:   1706  85  82
1720043940,520:   1108  85  82
1720043940,520:   -235  85  82
1720043940,520:   -676  85  82
1720043940,520:    248  85  82
1720043940,520:   1268  85  82
1720043940,520:   1084  85  82
1720043940,520:     92  85  82
1720043940,520:   -190  85  82
1720043940,520:    766  85  82
1720043940,520:   1754  85  82
1720043940,520:   1415  85  82
1720043940,520:     93  85  82
1720043940,520:   -578  85  82
1720043940,552:    163  85  82
1720043940,552:   1254  85  82
1720043940,552:   1249  85  82
1720043940,552:    246  85  82
1720043940,552:   -262  85  82
1720043940,552:    540  85  82
1720043940,552:   1664  85  82
1720043940,552:   1599  85  82
1720043940,552:    343  85  82
1720043940,552:   -541  85  82
1720043940,552:     -3  85  82
1720043940,552:   1171  85  82
1720043940,552:   1441  85  82
1720043940,552:    571  85  82
1720043940,552:    -81  85  82
1720043940,586:    531  85  82
1720043940,586:   1688  85  82
1720043940,586:   1826  85  82
1720043940,587:    635  85  82
1720043940,587:   -457  85  82
1720043940,587:   -174  85  82
1720043940,587:    977  85  82
1720043940,587:   1418  85  82
1720043940,587:    607  85  82
1720043940,587:   -247  85  82
1720043940,587:    131  85  82
1720043940,587:   1322  85  82
1720043940,587:   1739  85  82
1720043940,587:    722  85  82
1720043940,587:   -522  85  82
1720043940,613:   -517  85  82
1720043940,613:    575  85  82
1720043940,613:   1234  85  82
1720043940,613:    615  85  82
1720043940,613:   -321  85  82
1720043940,613:   -161  85  82
1720043940,613:   1008  85  82
1720043940,613:   1673  85  82
1720043940,613:    886  85  82
1720043940,613:   -425  85  82
1720043940,613:   -665  85  82
1720043940,613:    343  85  82
1720043940,613:   1195  85  82
1720043940,613:    793  85  82
1720043940,613:   -193  85  82
1720043940,645:   -268  85  82
1720043940,645:    809  85  82
1720043940,645:   1670  85  82
1720043940,645:   1124  85  82
1720043940,645:   -209  85  82
1720043940,645:   -693  85  82
1720043940,645:    174  85  82
1720043940,645:   1165  85  82
1720043940,645:    979  85  82
1720043940,645:    -19  85  82
1720043940,645:   -317  85  82
1720043940,645:    637  85  82
1720043940,645:   1661  85  82
1720043940,645:   1369  85  82
1720043940,645:     42  85  82
1720043940,676:   -694  85  82
1720043940,676:    -16  85  82
1720043940,676:   1080  85  82
1720043940,676:   1137  85  82
1720043940,676:    189  85  82
1720043940,676:   -303  85  82
1720043940,676:    511  85  82
1720043940,676:   1694  85  82
1720043940,676:   1712  85  82
1720043940,676:    479  85  82
1720043940,676:   -478  85  82
1720043940,676:    -43  85  82
1720043940,676:   1079  85  82
1720043940,676:   1339  85  82
1720043940,676:    412  85  82
1720043940,711:   -368  85  82
1720043940,711:    138  85  82
1720043940,711:   1327  85  82
1720043940,711:   1646  85  82
1720043940,711:    693  85  82
1720043940,711:   -132  85  82
1720043940,711:    577  85  82
1720043940,711:   2485  85  82
1720043940,711:   4024  85  82
1720043940,711:   4424  85  82
1720043940,711:   4605  85  82
1720043940,711:   5723  85  82
1720043940,711:   7462  85  82
1720043940,711:   8355  85  82
1720043940,711:   7657  85  82
1720043940,741:   6288  87  84
1720043940,741:   5482  87  84
1720043940,741:   5130  87  84
1720043940,741:   4086  87  84
1720043940,741:   1947  87  84
1720043940,741:   -107  87  84
1720043940,741:   -736  87  84
1720043940,741:   -224  87  84
1720043940,741:   -170  87  84
1720043940,741:  -1418  87  84
1720043940,741:  -2861  87  84
1720043940,741:  -2850  87  84
1720043940,741:  -1360  87  84
1720043940,741:    -43  87  84
1720043940,741:   -189  87  84
1720043940,741:  -1136  87  84
1720043940,741:  -1265  87  84
1720043940,741:   -213  87  84
1720043940,741:    673  87  84
1720043940,741:    151  87  84
1720043940,741:  -1192  87  84
1720043940,741:  -1682  87  84
1720043940,741:   -784  87  84
1720043940,770:    257  87  84
1720043940,770:     93  87  84
1720043940,770:   -921  87  84
1720043940,770:  -1217  87  84
1720043940,770:   -192  87  84
1720043940,770:    928  87  84
1720043940,770:    659  87  84
1720043940,770:   -750  87  84
1720043940,770:  -1593  87  84
1720043940,770:   -947  87  84
1720043940,770:    200  87  84
1720043940,770:    319  87  84
1720043940,770:   -611  87  84
1720043940,770:  -1098  87  84
1720043940,770:   -234  87  84
1720043940,802:   1023  87  84
1720043940,802:   1062  87  84
1720043940,802:   -232  87  84
1720043940,802:  -1259  87  84
1720043940,802:   -807  87  84
1720043940,802:    424  87  84
1720043940,802:    801  87  84
1720043940,833:    -63  87  84
1720043940,833:   -807  87  84
1720043940,833:   -226  87  84
1720043940,833:   1064  87  84
1720043940,833:   1400  87  84
1720043940,833:    281  87  84
1720043940,833:   -910  87  84
1720043940,833:   -730  87  84
1720043940,833:    469  87  84
1720043940,833:   1072  87  84
1720043940,833:    366  87  84
1720043940,833:   -516  87  84
1720043940,833:   -185  87  84
1720043940,833:   1073  87  84
1720043940,833:   1642  87  84
1720043940,833:    708  87  84
1720043940,833:   -590  87  84
1720043940,833:   -658  87  84
1720043940,833:    475  87  84
1720043940,833:   1264  87  84
1720043940,833:    717  87  84
1720043940,833:   -277  87  84
1720043940,833:   -193  87  84
1720043940,864:   1017  87  84
1720043940,864:   1821  87  84
1720043940,864:   1110  87  84
1720043940,864:   -270  87  84
1720043940,864:   -613  87  84
1720043940,864:    405  87  84
1720043940,864:   1376  87  84
1720043940,864:   1042  87  84
1720043940,864:    -17  87  84
1720043940,864:   -200  87  84
1720043940,864:    893  87  84
1720043940,864:   1889  87  84
1720043940,864:   1428  87  84
1720043940,864:     14  87  84
1720043940,864:   -607  87  84
1720043940,896:    252  87  84
1720043940,896:   1386  87  84
1720043940,896:   1316  87  84
1720043940,896:    258  87  84
1720043940,896:   -199  87  84
1720043940,896:    700  87  84
1720043940,896:   1836  87  84
1720043940,896:   1673  87  84
1720043940,896:    336  87  84
1720043940,896:   -513  87  84
1720043940,896:    123  87  84
1720043940,896:   1314  87  84
1720043940,896:   1481  87  84
1720043940,896:    501  87  84
1720043940,896:   -142  87  84
1720043940,926:    567  87  84
1720043940,926:   1769  87  84
1720043940,926:   1832  87  84
1720043940,926:    538  87  84
1720043940,926:   -558  87  84
1720043940,926:   -182  87  84
1720043940,926:   1034  87  84
1720043940,926:   1438  87  84
1720043940,926:    548  87  84
1720043940,926:   -319  87  84
1720043940,926:    110  87  84
1720043940,926:   1317  87  84
1720043940,926:   1658  87  84
1720043940,926:    552  87  84
1720043940,926:   -680  87  84
1720043940,962:   -561  87  84
1720043940,962:    627  87  84
1720043940,962:   1279  87  84
1720043940,962:    597  87  84
1720043940,962:   -352  87  84
1720043940,962:   -138  87  84
1720043940,962:   1055  87  84
1720043940,962:   1646  87  84
1720043940,962:    748  87  84
1720043940,962:   -583  87  84
1720043940,962:   -733  87  84
1720043940,962:    366  87  84
1720043940,962:   1214  87  84
1720043940,962:    740  87  84
1720043940,962:   -273  87  84
1720043940,962:   -296  87  84
1720043940,962:    826  87  84
1720043940,962:   1635  87  84
1720043940,962:    978  87  84
1720043940,962:   -404  87  84
1720043940,962:   -829  87  84
1720043940,962:    118  87  84
1720043940,991:   1106  87  84
1720043940,991:    846  87  84
1720043940,991:   -188  87  84
1720043940,991:   -436  87  84
1720043940,991:    578  87  84
1720043940,991:   1575  87  84
1720043940,991:   1189  87  84
1720043940,992:   -173  87  84
1720043941,019:   -826  87  84
1720043941,019:    -36  87  84
1720043941,019:   1075  87  84
1720043941,019:   1045  87  84
1720043941,019:     22  87  84
1720043941,019:   -460  87  84
1720043941,019:    386  87  84
1720043941,019:   1512  87  84
1720043941,019:   1390  87  84
1720043941,019:     72  87  84
1720043941,019:   -823  87  84
1720043941,019:   -252  87  84
1720043941,019:    940  87  84
1720043941,019:   1182  87  84
1720043941,019:    265  87  84
1720043941,019:   -395  87  84
1720043941,019:    258  87  84
1720043941,019:   1464  87  84
