timestamp: ADC HeartRate4sAverage HeartRate30sAverage
1720113178,303:    393 107 106
1720113178,303:    380 107 106
1720113178,303:    372 107 106
1720113178,303:    389 107 106
1720113178,303:    415 107 106
1720113178,303:    422 107 106
1720113178,303:    404 107 106
1720113178,303:    389 107 106
1720113178,333:    399 107 106
1720113178,333:    422 107 106
1720113178,333:    426 107 106
1720113178,333:    399 107 106
1720113178,333:    365 107 106
1720113178,333:    355 107 106
1720113178,333:    367 107 106
1720113178,333:    371 107 106
1720113178,333:    350 107 106
1720113178,333:    321 107 106
1720113178,333:    312 107 106
1720113178,333:    326 107 106
1720113178,333:    334 107 106
1720113178,333:    317 107 106
1720113178,333:    289 107 106
1720113178,364:    279 107 106
1720113178,364:    294 107 106
1720113178,364:    306 107 106
1720113178,364:    294 107 106
1720113178,364:    267 107 106
1720113178,364:    253 107 106
1720113178,364:    261 107 106
1720113178,364:    268 107 106
1720113178,364:    252 107 106
1720113178,364:    224 107 106
1720113178,364:    209 107 106
1720113178,364:    218 107 106
1720113178,364:    233 107 106
1720113178,364:    229 107 106
1720113178,364:    211 107 106
1720113178,394:    199 107 106
1720113178,394:    203 107 106
1720113178,394:    206 107 106
1720113178,394:    187 107 106
1720113178,394:    151 107 106
1720113178,394:    125 107 106
1720113178,394:    125 107 106
1720113178,394:    135 107 106
1720113178,394:    131 107 106
1720113178,394:    112 107 106
1720113178,394:     97 107 106
1720113178,394:    105 107 106
1720113178,394:    124 107 106
1720113178,394:    126 107 106
1720113178,394:    102 107 106
1720113178,394:     75 107 106
1720113178,394:     69 107 106
1720113178,394:     83 107 106
1720113178,394:     92 107 106
1720113178,394:     80 107 106
1720113178,394:     59 107 106
1720113178,394:     55 107 106
1720113178,424:     70 107 106
1720113178,424:     82 107 106
1720113178,424:     72 107 106
1720113178,424:     53 107 106
1720113178,424:     51 107 106
1720113178,424:     71 107 106
1720113178,424:     91 107 106
1720113178,424:     90 107 106
1720113178,424:     77 107 106
1720113178,424:     73 107 106
1720113178,424:     82 107 106
1720113178,424:     86 107 106
1720113178,424:     66 107 106
1720113178,424:     34 107 106
1720113178,424:     18 107 106
1720113178,454:     24 107 106
1720113178,454:     36 107 106
1720113178,454:     37 107 106
1720113178,454:     37 107 106
1720113178,454:     57 107 106
1720113178,454:     98 107 106
1720113178,454:    135 107 106
1720113178,454:    145 107 106
1720113178,454:    138 107 106
1720113178,454:    139 107 106
1720113178,454:    157 107 106
1720113178,454:    170 107 106
1720113178,454:    157 107 106
1720113178,454:    123 107 106
1720113178,454:     95 107 106
1720113178,484:     86 107 106
1720113178,484:     81 107 106
1720113178,484:     60 107 106
1720113178,484:     27 107 106
1720113178,484:      3 107 106
1720113178,484:      0 107 106
1720113178,484:      2 107 106
1720113178,484:    -14 107 106
1720113178,515:    -46 107 106
1720113178,515:    -72 107 106
1720113178,515:    -79 107 106
1720113178,515:    -83 107 106
1720113178,515:   -104 107 106
1720113178,515:   -140 107 106
1720113178,515:   -162 107 106
1720113178,515:   -154 107 106
1720113178,515:   -132 107 106
1720113178,515:   -122 107 106
1720113178,515:   -127 107 106
1720113178,515:   -127 107 106
1720113178,515:   -108 107 106
1720113178,515:    -85 107 106
1720113178,515:    -83 107 106
1720113178,546:   -103 107 106
1720113178,546:   -120 107 106
1720113178,546:   -112 107 106
1720113178,546:    -88 107 106
1720113178,546:    -71 107 106
1720113178,546:    -73 107 106
1720113178,546:    -76 107 106
1720113178,546:    -65 107 106
1720113178,546:    -44 107 106
1720113178,546:    -35 107 106
1720113178,546:    -49 107 106
1720113178,546:    -69 107 106
1720113178,546:    -76 107 106
1720113178,546:    -69 107 106
1720113178,546:    -64 107 106
1720113178,546:    -74 107 106
1720113178,546:    -87 107 106
1720113178,546:    -84 107 106
1720113178,546:    -67 107 106
1720113178,546:    -51 107 106
1720113178,546:    -43 107 106
1720113178,546:    -33 107 106
1720113178,576:     -9 107 106
1720113178,576:     23 107 106
1720113178,576:     27 107 106
1720113178,576:    -22 107 106
1720113178,576:   -113 107 106
1720113178,576:   -209 107 106
1720113178,576:   -297 107 106
1720113178,576:   -405 107 106
1720113178,576:   -579 107 106
1720113178,576:   -821 107 106
1720113178,576:  -1048 107 106
1720113178,576:  -1126 107 106
1720113178,576:   -962 107 106
1720113178,576:   -538 107 106
1720113178,576:    141 107 106
1720113178,606:   1120 107 106
1720113178,606:   2446 107 106
1720113178,606:   4047 107 106
1720113178,606:   5691 107 106
1720113178,606:   7127 107 106
1720113178,606:   8274 107 106
1720113178,606:   9202 107 106
1720113178,606:   9917 107 106
1720113178,606:  10195 107 106
1720113178,606:   9744 107 106
1720113178,606:   8533 107 106
1720113178,606:   6916 107 106
1720113178,606:   5371 107 106
1720113178,606:   4114 107 106
1720113178,606:   3014 107 106
1720113178,636:   1868 103 106
1720113178,636:    694 103 106
1720113178,636:   -267 103 106
1720113178,636:   -793 103 106
1720113178,636:   -901 103 106
1720113178,636:   -807 103 106
1720113178,636:   -743 103 106
1720113178,636:   -816 103 106
1720113178,636:  -1004 103 106
1720113178,636:  -1217 103 106
1720113178,636:  -1378 103 106
1720113178,636:  -1470 103 106
1720113178,636:  -1536 103 106
1720113178,636:  -1630 103 106
1720113178,636:  -1768 103 106
1720113178,666:  -1914 103 106
1720113178,666:  -2015 103 106
1720113178,666:  -2065 103 106
1720113178,666:  -2101 103 106
1720113178,666:  -2150 103 106
1720113178,666:  -2196 103 106
1720113178,666:  -2208 103 106
1720113178,666:  -2181 103 106
1720113178,666:  -2137 103 106
1720113178,666:  -2096 103 106
1720113178,666:  -2049 103 106
1720113178,666:  -1977 103 106
1720113178,666:  -1883 103 106
1720113178,666:  -1797 103 106
1720113178,666:  -1742 103 106
1720113178,696:  -1713 103 106
1720113178,696:  -1682 103 106
1720113178,696:  -1635 103 106
1720113178,696:  -1582 103 106
1720113178,696:  -1535 103 106
1720113178,696:  -1486 103 106
1720113178,696:  -1419 103 106
1720113178,696:  -1335 103 106
1720113178,696:  -1260 103 106
1720113178,696:  -1218 103 106
1720113178,696:  -1199 103 106
1720113178,696:  -1175 103 106
1720113178,696:  -1131 103 106
1720113178,696:  -1084 103 106
1720113178,696:  -1056 103 106
1720113178,728:  -1042 103 106
1720113178,728:  -1015 103 106
1720113178,728:   -965 103 106
1720113178,728:   -915 103 106
1720113178,728:   -895 103 106
1720113178,728:   -901 103 106
1720113178,728:   -898 103 106
1720113178,728:   -864 103 106
1720113178,728:   -816 103 106
1720113178,728:   -791 103 106
1720113178,728:   -793 103 106
1720113178,728:   -788 103 106
1720113178,728:   -754 103 106
1720113178,728:   -711 103 106
1720113178,728:   -699 103 106
1720113178,760:   -726 103 106
1720113178,760:   -753 103 106
1720113178,760:   -745 103 106
1720113178,760:   -710 103 106
1720113178,760:   -688 103 106
1720113178,760:   -695 103 106
1720113178,760:   -705 103 106
1720113178,760:   -687 103 106
1720113178,760:   -649 103 106
1720113178,760:   -627 103 106
1720113178,760:   -635 103 106
1720113178,760:   -649 103 106
1720113178,760:   -640 103 106
1720113178,760:   -610 103 106
1720113178,760:   -589 103 106
1720113178,792:   -593 103 106
1720113178,792:   -600 103 106
1720113178,792:   -581 103 106
1720113178,792:   -543 103 106
1720113178,792:   -515 103 106
1720113178,792:   -516 103 106
1720113178,792:   -525 103 106
1720113178,792:   -513 103 106
1720113178,792:   -481 103 106
1720113178,792:   -455 103 106
1720113178,792:   -454 103 106
1720113178,792:   -464 103 106
1720113178,792:   -460 103 106
1720113178,792:   -437 103 106
1720113178,792:   -414 103 106
1720113178,823:   -408 103 106
1720113178,823:   -409 103 106
1720113178,823:   -397 103 106
1720113178,823:   -368 103 106
1720113178,823:   -339 103 106
1720113178,823:   -325 103 106
1720113178,823:   -318 103 106
1720113178,823:   -297 103 106
1720113178,823:   -261 103 106
1720113178,823:   -230 103 106
1720113178,823:   -221 103 106
1720113178,823:   -224 103 106
1720113178,823:   -211 103 106
1720113178,823:   -174 103 106
1720113178,823:   -131 103 106
1720113178,823:   -102 103 106
1720113178,823:    -89 103 106
1720113178,823:    -74 103 106
1720113178,823:    -46 103 106
1720113178,823:    -14 103 106
1720113178,853:      6 103 106
1720113178,853:     15 103 106
1720113178,853:     30 103 106
1720113178,853:     60 103 106
1720113178,853:     95 103 106
1720113178,853:    119 103 106
1720113178,853:    132 103 106
1720113178,853:    148 103 106
1720113178,853:    176 103 106
1720113178,853:    204 103 106
1720113178,853:    215 103 106
1720113178,853:    210 103 106
1720113178,853:    209 103 106
1720113178,853:    224 103 106
1720113178,853:    245 103 106
1720113178,884:    253 103 106
1720113178,884:    248 103 106
1720113178,884:    252 103 106
1720113178,884:    278 103 106
1720113178,884:    313 103 106
1720113178,884:    330 103 106
1720113178,884:    320 103 106
1720113178,884:    308 103 106
1720113178,884:    321 103 106
1720113178,884:    356 103 106
1720113178,884:    382 103 106
1720113178,884:    381 103 106
1720113178,884:    370 103 106
1720113178,884:    375 103 106
1720113178,884:    397 103 106
1720113178,915:    410 103 106
1720113178,915:    396 103 106
1720113178,915:    373 103 106
1720113178,915:    371 103 106
1720113178,915:    392 103 106
1720113178,915:    408 103 106
1720113178,915:    393 103 106
1720113178,915:    363 103 106
1720113178,915:    348 103 106
1720113178,915:    358 103 106
1720113178,915:    367 103 106
1720113178,915:    348 103 106
1720113178,915:    308 103 106
1720113178,915:    277 103 106
1720113178,915:    273 103 106
1720113178,946:    281 103 106
1720113178,946:    279 103 106
1720113178,946:    266 103 106
1720113178,946:    260 103 106
1720113178,946:    269 103 106
1720113178,946:    279 103 106
1720113178,946:    270 103 106
1720113178,946:    248 103 106
1720113178,946:    234 103 106
1720113178,946:    238 103 106
1720113178,946:    246 103 106
1720113178,946:    238 103 106
1720113178,946:    214 103 106
1720113178,946:    196 103 106
1720113178,946:    198 103 106
1720113178,976:    206 103 106
1720113178,976:    197 103 106
1720113178,976:    171 103 106
1720113178,976:    147 103 106
1720113178,976:    145 103 106
1720113178,976:    156 103 106
1720113178,976:    159 103 106
1720113178,976:    146 103 106
1720113178,976:    132 103 106
1720113178,976:    133 103 106
1720113178,976:    141 103 106
1720113178,976:    137 103 106
1720113178,976:    114 103 106
1720113178,976:     91 103 106
1720113178,976:     83 103 106
1720113179,007:     87 103 106
1720113179,007:     86 103 106
1720113179,007:     74 103 106
1720113179,007:     65 103 106
1720113179,007:     69 103 106
1720113179,007:     80 103 106
1720113179,007:     76 103 106
1720113179,007:     54 103 106
1720113179,007:     33 103 106
1720113179,007:     27 103 106
1720113179,007:     27 103 106
1720113179,007:     17 103 106
1720113179,007:     -8 103 106
1720113179,007:    -29 103 106
1720113179,007:    -28 103 106
1720113179,039:    -15 103 106
1720113179,039:    -13 103 106
1720113179,039:    -29 103 106
1720113179,039:    -46 103 106
1720113179,039:    -42 103 106
1720113179,039:    -23 103 106
1720113179,039:    -13 103 106
1720113179,039:    -25 103 106
1720113179,039:    -43 103 106
1720113179,039:    -46 103 106
1720113179,039:    -34 103 106
1720113179,039:    -31 103 106
1720113179,039:    -50 103 106
1720113179,039:    -78 103 106
1720113179,039:    -86 103 106
1720113179,039:    -72 103 106
1720113179,039:    -55 103 106
1720113179,039:    -58 103 106
1720113179,039:    -72 103 106
1720113179,039:    -74 103 106
1720113179,039:    -55 103 106
1720113179,039:    -36 103 106
1720113179,071:    -38 103 106
1720113179,071:    -57 103 106
1720113179,071:    -72 103 106
1720113179,071:    -69 103 106
1720113179,071:    -61 103 106
1720113179,071:    -64 103 106
1720113179,071:    -78 103 106
1720113179,071:    -85 103 106
1720113179,103:    -79 103 106
1720113179,103:    -73 103 106
1720113179,103:    -80 103 106
1720113179,103:    -90 103 106
1720113179,103:    -76 103 106
1720113179,103:    -29 103 106
1720113179,103:     28 103 106
1720113179,103:     63 103 106
1720113179,103:     71 103 106
1720113179,103:     79 103 106
1720113179,103:    105 103 106
1720113179,103:    135 103 106
1720113179,103:    138 103 106
1720113179,103:    106 103 106
1720113179,103:     65 103 106
1720113179,103:     44 103 106
1720113179,103:     45 103 106
1720113179,103:     44 103 106
1720113179,103:     27 103 106
1720113179,103:      9 103 106
1720113179,103:      5 103 106
1720113179,103:     10 103 106
1720113179,133:      4 103 106
1720113179,133:    -19 103 106
1720113179,133:    -44 103 106
1720113179,133:    -52 103 106
1720113179,133:    -54 103 106
1720113179,133:    -68 103 106
1720113179,133:    -97 103 106
1720113179,133:   -121 103 106
1720113179,133:   -122 103 106
1720113179,133:   -107 103 106
1720113179,133:   -102 103 106
1720113179,133:   -118 103 106
1720113179,133:   -137 103 106
1720113179,133:   -137 103 106
1720113179,133:   -118 103 106
1720113179,164:   -100 103 106
1720113179,164:    -99 103 106
1720113179,164:   -104 103 106
1720113179,164:    -98 103 106
1720113179,164:    -81 103 106
1720113179,164:    -71 103 106
1720113179,164:    -80 103 106
1720113179,164:    -96 103 106
1720113179,164:    -97 103 106
1720113179,164:    -83 103 106
1720113179,164:    -77 103 106
1720113179,164:    -93 103 106
1720113179,164:   -121 103 106
1720113179,164:   -132 103 106
1720113179,164:   -120 103 106
1720113179,194:   -108 103 106
1720113179,194:   -117 103 106
1720113179,194:   -136 103 106
1720113179,194:   -137 103 106
1720113179,194:   -107 103 106
1720113179,194:    -64 103 106
1720113179,194:    -34 103 106
1720113179,194:    -20 103 106
1720113179,194:    -11 103 106
1720113179,194:    -14 103 106
1720113179,194:    -53 103 106
1720113179,194:   -138 103 106
1720113179,194:   -241 103 106
1720113179,194:   -323 103 106
1720113179,194:   -388 103 106
1720113179,226:   -485 103 106
1720113179,226:   -644 103 106
1720113179,226:   -794 103 106
1720113179,226:   -792 103 106
1720113179,226:   -546 103 106
1720113179,226:    -70 103 106
1720113179,226:    604 103 106
1720113179,226:   1534 103 106
1720113179,226:   2801 103 106
1720113179,226:   4318 103 106
1720113179,226:   5791 103 106
1720113179,226:   6943 103 106
1720113179,226:   7765 103 106
1720113179,226:   8450 103 106
1720113179,226:   9035 103 106
1720113179,226:   9212 103 106
1720113179,226:   8603 103 106
1720113179,226:   7223 103 106
1720113179,226:   5565 103 106
1720113179,226:   4161 103 106
1720113179,226:   3128 103 106
1720113179,226:   2193 103 106
1720113179,226:   1128 103 106
1720113179,258:     48  96 104
1720113179,258:   -738  96 104
1720113179,258:  -1071  96 104
1720113179,258:  -1081  96 104
1720113179,258:  -1004  96 104
1720113179,258:   -971  96 104
1720113179,258:   -997  96 104
1720113179,290:  -1075  96 104
1720113179,290:  -1207  96 104
1720113179,290:  -1364  96 104
1720113179,290:  -1478  96 104
1720113179,290:  -1511  96 104
1720113179,290:  -1508  96 104
1720113179,290:  -1551  96 104
1720113179,290:  -1667  96 104
1720113179,290:  -1798  96 104
1720113179,290:  -1882  96 104
1720113179,290:  -1913  96 104
1720113179,290:  -1933  96 104
1720113179,290:  -1969  96 104
1720113179,290:  -2008  96 104
1720113179,290:  -2014  96 104
1720113179,322:  -1977  96 104
1720113179,322:  -1919  96 104
1720113179,322:  -1867  96 104
1720113179,322:  -1819  96 104
1720113179,322:  -1754  96 104
1720113179,322:  -1668  96 104
1720113179,322:  -1591  96 104
1720113179,322:  -1551  96 104
1720113179,322:  -1540  96 104
1720113179,322:  -1527  96 104
1720113179,322:  -1491  96 104
1720113179,322:  -1445  96 104
1720113179,322:  -1411  96 104
1720113179,322:  -1387  96 104
1720113179,322:  -1346  96 104
1720113179,322:  -1279  96 104
1720113179,322:  -1210  96 104
1720113179,322:  -1171  96 104
1720113179,322:  -1161  96 104
1720113179,322:  -1147  96 104
1720113179,322:  -1105  96 104
1720113179,322:  -1051  96 104
1720113179,322:  -1021  96 104
1720113179,354:  -1024  96 104
1720113179,354:  -1028  96 104
1720113179,354:  -1001  96 104
1720113179,354:   -951  96 104
1720113179,354:   -911  96 104
1720113179,354:   -900  96 104
1720113179,354:   -897  96 104
1720113179,354:   -870  96 104
1720113179,354:   -819  96 104
1720113179,354:   -775  96 104
1720113179,354:   -761  96 104
1720113179,354:   -761  96 104
1720113179,354:   -745  96 104
1720113179,354:   -706  96 104
1720113179,354:   -669  96 104
1720113179,386:   -657  96 104
1720113179,386:   -662  96 104
1720113179,386:   -655  96 104
1720113179,386:   -626  96 104
1720113179,386:   -593  96 104
1720113179,386:   -583  96 104
1720113179,386:   -590  96 104
1720113179,386:   -589  96 104
1720113179,386:   -565  96 104
1720113179,386:   -534  96 104
1720113179,386:   -517  96 104
1720113179,386:   -513  96 104
1720113179,386:   -502  96 104
1720113179,386:   -476  96 104
1720113179,386:   -450  96 104
1720113179,417:   -444  96 104
1720113179,417:   -450  96 104
1720113179,417:   -445  96 104
1720113179,417:   -420  96 104
1720113179,417:   -396  96 104
1720113179,417:   -393  96 104
1720113179,417:   -408  96 104
1720113179,417:   -415  96 104
1720113179,417:   -403  96 104
1720113179,417:   -390  96 104
1720113179,417:   -397  96 104
1720113179,417:   -419  96 104
1720113179,417:   -429  96 104
1720113179,417:   -416  96 104
1720113179,417:   -397  96 104
1720113179,447:   -393  96 104
1720113179,447:   -400  96 104
1720113179,447:   -395  96 104
1720113179,447:   -367  96 104
1720113179,447:   -339  96 104
1720113179,447:   -338  96 104
1720113179,447:   -357  96 104
1720113179,447:   -363  96 104
1720113179,447:   -339  96 104
1720113179,447:   -303  96 104
1720113179,447:   -286  96 104
1720113179,447:   -290  96 104
1720113179,447:   -288  96 104
1720113179,447:   -255  96 104
1720113179,447:   -210  96 104
1720113179,478:   -186  96 104
1720113179,478:   -194  96 104
1720113179,478:   -205  96 104
1720113179,478:   -188  96 104
1720113179,478:   -148  96 104
1720113179,478:   -113  96 104
1720113179,478:   -103  96 104
1720113179,478:   -102  96 104
1720113179,478:    -84  96 104
1720113179,478:    -47  96 104
1720113179,478:    -13  96 104
1720113179,478:      1  96 104
1720113179,478:      6  96 104
1720113179,478:     21  96 104
1720113179,478:     50  96 104
1720113179,510:     77  96 104
1720113179,510:     90  96 104
1720113179,510:     98  96 104
1720113179,510:    116  96 104
1720113179,510:    143  96 104
1720113179,510:    159  96 104
1720113179,510:    154  96 104
1720113179,510:    141  96 104
1720113179,510:    142  96 104
1720113179,510:    162  96 104
1720113179,510:    181  96 104
1720113179,510:    185  96 104
1720113179,510:    183  96 104
1720113179,510:    196  96 104
1720113179,510:    228  96 104
1720113179,510:    256  96 104
1720113179,510:    261  96 104
1720113179,510:    250  96 104
1720113179,510:    247  96 104
1720113179,510:    261  96 104
1720113179,510:    274  96 104
1720113179,510:    269  96 104
1720113179,540:    250  96 104
1720113179,540:    241  96 104
1720113179,540:    253  96 104
1720113179,540:    267  96 104
1720113179,540:    260  96 104
1720113179,540:    233  96 104
1720113179,540:    216  96 104
1720113179,540:    224  96 104
1720113179,570:    244  96 104
1720113179,570:    246  96 104
1720113179,570:    224  96 104
1720113179,570:    201  96 104
1720113179,570:    197  96 104
1720113179,570:    210  96 104
1720113179,570:    214  96 104
1720113179,570:    201  96 104
1720113179,570:    188  96 104
1720113179,570:    191  96 104
1720113179,570:    207  96 104
1720113179,570:    214  96 104
1720113179,570:    204  96 104
1720113179,570:    192  96 104
1720113179,570:    192  96 104
1720113179,600:    195  96 104
1720113179,600:    180  96 104
1720113179,600:    146  96 104
1720113179,600:    117  96 104
1720113179,600:    114  96 104
1720113179,600:    130  96 104
1720113179,600:    139  96 104
1720113179,600:    128  96 104
1720113179,600:    113  96 104
1720113179,600:    116  96 104
1720113179,600:    132  96 104
1720113179,600:    137  96 104
1720113179,600:    117  96 104
1720113179,600:     86  96 104
1720113179,600:     72  96 104
1720113179,600:     79  96 104
1720113179,600:     86  96 104
1720113179,600:     77  96 104
1720113179,600:     57  96 104
1720113179,600:     48  96 104
1720113179,600:     57  96 104
1720113179,600:     67  96 104
1720113179,632:     60  96 104
1720113179,632:     40  96 104
1720113179,632:     29  96 104
1720113179,632:     36  96 104
1720113179,632:     44  96 104
1720113179,632:     36  96 104
1720113179,632:     19  96 104
1720113179,632:     11  96 104
1720113179,632:     20  96 104
1720113179,632:     28  96 104
1720113179,632:     16  96 104
1720113179,632:     -8  96 104
1720113179,632:    -20  96 104
1720113179,632:     -9  96 104
1720113179,632:      4  96 104
1720113179,662:     -2  96 104
1720113179,662:    -22  96 104
1720113179,662:    -29  96 104
1720113179,662:    -12  96 104
1720113179,662:      9  96 104
1720113179,662:      7  96 104
1720113179,662:    -12  96 104
1720113179,662:    -15  96 104
1720113179,692:     11  96 104
1720113179,692:     46  96 104
1720113179,692:     55  96 104
1720113179,692:     38  96 104
1720113179,692:     25  96 104
1720113179,692:     37  96 104
1720113179,692:     59  96 104
1720113179,692:     53  96 104
1720113179,692:     13  96 104
1720113179,692:    -29  96 104
1720113179,692:    -39  96 104
1720113179,692:    -16  96 104
1720113179,692:      9  96 104
1720113179,692:     20  96 104
1720113179,692:     30  96 104
1720113179,692:     62  96 104
1720113179,692:    112  96 104
1720113179,692:    147  96 104
1720113179,692:    151  96 104
1720113179,692:    143  96 104
1720113179,692:    149  96 104
1720113179,692:    167  96 104
1720113179,724:    170  96 104
1720113179,724:    140  96 104
1720113179,724:     99  96 104
1720113179,724:     81  96 104
1720113179,724:     91  96 104
1720113179,724:     98  96 104
1720113179,724:     75  96 104
1720113179,724:     34  96 104
1720113179,724:     10  96 104
1720113179,724:     15  96 104
1720113179,724:     22  96 104
1720113179,724:      4  96 104
1720113179,724:    -35  96 104
1720113179,724:    -66  96 104
1720113179,724:    -75  96 104
1720113179,756:    -82  96 104
1720113179,756:   -110  96 104
1720113179,756:   -146  96 104
1720113179,756:   -160  96 104
1720113179,756:   -143  96 104
1720113179,756:   -119  96 104
1720113179,756:   -119  96 104
1720113179,756:   -136  96 104
1720113179,756:   -139  96 104
1720113179,756:   -114  96 104
1720113179,756:    -82  96 104
1720113179,756:    -78  96 104
1720113179,756:   -100  96 104
1720113179,756:   -117  96 104
1720113179,756:   -104  96 104
1720113179,788:    -76  96 104
1720113179,788:    -62  96 104
1720113179,788:    -71  96 104
1720113179,788:    -81  96 104
1720113179,788:    -73  96 104
1720113179,788:    -57  96 104
1720113179,788:    -58  96 104
1720113179,788:    -79  96 104
1720113179,788:    -98  96 104
1720113179,788:    -99  96 104
1720113179,788:    -90  96 104
1720113179,788:    -95  96 104
1720113179,788:   -114  96 104
1720113179,788:   -122  96 104
1720113179,788:   -106  96 104
1720113179,820:    -77  96 104
1720113179,820:    -60  96 104
1720113179,820:    -61  96 104
1720113179,820:    -58  96 104
1720113179,820:    -43  96 104
1720113179,820:    -40  96 104
1720113179,820:    -78  96 104
1720113179,820:   -149  96 104
1720113179,820:   -211  96 104
1720113179,820:   -245  96 104
1720113179,820:   -289  96 104
1720113179,820:   -403  96 104
1720113179,820:   -578  96 104
1720113179,820:   -694  96 104
1720113179,820:   -618  96 104
1720113179,852:   -310  96 104
1720113179,852:    191  96 104
1720113179,852:    904  96 104
1720113179,852:   1943  96 104
1720113179,852:   3355  96 104
1720113179,852:   4938  96 104
1720113179,852:   6332  96 104
1720113179,852:   7333  96 104
1720113179,852:   8073  96 104
1720113179,852:   8778  96 104
1720113179,852:   9351  96 104
1720113179,852:   9349  96 104
1720113179,852:   8425  96 104
1720113179,852:   6780  96 104
1720113179,852:   5039  96 104
1720113179,852:   3684  96 104
1720113179,852:   2674  96 104
1720113179,852:   1666  96 104
1720113179,852:    509  96 104
1720113179,852:   -570  96 104
1720113179,884:  -1245  99 101
1720113179,884:  -1434  99 101
1720113179,884:  -1333  99 101
1720113179,884:  -1182  99 101
1720113179,884:  -1095  99 101
1720113179,884:  -1087  99 101
1720113179,884:  -1159  99 101
1720113179,884:  -1301  99 101
1720113179,884:  -1455  99 101
1720113179,884:  -1547  99 101
1720113179,884:  -1564  99 101
1720113179,884:  -1569  99 101
1720113179,884:  -1631  99 101
1720113179,884:  -1746  99 101
1720113179,884:  -1852  99 101
1720113179,884:  -1907  99 101
1720113179,884:  -1925  99 101
1720113179,884:  -1940  99 101
1720113179,884:  -1962  99 101
1720113179,884:  -1976  99 101
1720113179,884:  -1966  99 101
1720113179,884:  -1934  99 101
1720113179,884:  -1896  99 101
1720113179,948:  -1854  99 101
1720113179,948:  -1799  99 101
1720113179,948:  -1723  99 101
1720113179,948:  -1641  99 101
1720113179,948:  -1581  99 101
1720113179,948:  -1553  99 101
1720113179,948:  -1539  99 101
1720113179,948:  -1513  99 101
1720113179,948:  -1468  99 101
1720113179,948:  -1419  99 101
1720113179,948:  -1378  99 101
1720113179,948:  -1333  99 101
1720113179,948:  -1274  99 101
1720113179,948:  -1205  99 101
1720113179,948:  -1151  99 101
1720113179,948:  -1123  99 101
1720113179,948:  -1104  99 101
1720113179,948:  -1075  99 101
1720113179,948:  -1032  99 101
1720113179,948:   -991  99 101
1720113179,948:   -963  99 101
1720113179,948:   -936  99 101
1720113179,978:   -893  99 101
1720113179,978:   -838  99 101
1720113179,978:   -798  99 101
1720113179,978:   -785  99 101
1720113179,978:   -785  99 101
1720113179,978:   -772  99 101
1720113179,978:   -740  99 101
1720113179,978:   -707  99 101
1720113179,978:   -689  99 101
1720113179,978:   -679  99 101
1720113179,978:   -656  99 101
1720113179,978:   -618  99 101
1720113179,978:   -586  99 101
1720113179,978:   -580  99 101
1720113179,978:   -589  99 101
1720113180,009:   -586  99 101
1720113180,009:   -561  99 101
1720113180,009:   -533  99 101
1720113180,009:   -525  99 101
1720113180,009:   -533  99 101
1720113180,009:   -532  99 101
1720113180,009:   -507  99 101
1720113180,009:   -477  99 101
1720113180,009:   -464  99 101
1720113180,009:   -466  99 101
1720113180,009:   -460  99 101
1720113180,009:   -431  99 101
1720113180,009:   -396  99 101
1720113180,009:   -378  99 101
1720113180,009:   -378  99 101
1720113180,009:   -376  99 101
1720113180,009:   -358  99 101
1720113180,009:   -337  99 101
1720113180,009:   -337  99 101
1720113180,009:   -355  99 101
1720113180,009:   -368  99 101
1720113180,009:   -360  99 101
1720113180,009:   -344  99 101
1720113180,039:   -341  99 101
1720113180,039:   -351  99 101
1720113180,039:   -352  99 101
1720113180,039:   -328  99 101
1720113180,039:   -297  99 101
1720113180,039:   -288  99 101
1720113180,039:   -302  99 101
1720113180,039:   -312  99 101
1720113180,039:   -294  99 101
1720113180,039:   -259  99 101
1720113180,039:   -239  99 101
1720113180,039:   -246  99 101
1720113180,039:   -257  99 101
1720113180,039:   -244  99 101
1720113180,039:   -210  99 101
1720113180,070:   -187  99 101
1720113180,070:   -191  99 101
1720113180,070:   -202  99 101
1720113180,070:   -190  99 101
1720113180,070:   -154  99 101
1720113180,070:   -120  99 101
1720113180,070:   -106  99 101
1720113180,102:   -101  99 101
1720113180,102:    -79  99 101
1720113180,102:    -39  99 101
1720113180,102:     -7  99 101
1720113180,102:     -1  99 101
1720113180,102:     -4  99 101
1720113180,102:     13  99 101
1720113180,102:     54  99 101
1720113180,102:     91  99 101
1720113180,102:    101  99 101
1720113180,102:     96  99 101
1720113180,102:    109  99 101
1720113180,102:    149  99 101
1720113180,102:    189  99 101
1720113180,102:    199  99 101
1720113180,102:    187  99 101
1720113180,102:    187  99 101
1720113180,102:    217  99 101
1720113180,102:    257  99 101
1720113180,102:    281  99 101
1720113180,102:    286  99 101
1720113180,102:    296  99 101
1720113180,102:    326  99 101
1720113180,133:    356  99 101
1720113180,133:    363  99 101
1720113180,133:    348  99 101
1720113180,133:    339  99 101
1720113180,133:    355  99 101
1720113180,133:    380  99 101
1720113180,133:    386  99 101
1720113180,133:    370  99 101
1720113180,133:    356  99 101
1720113180,133:    367  99 101
1720113180,133:    391  99 101
1720113180,133:    401  99 101
1720113180,133:    387  99 101
1720113180,133:    371  99 101
1720113180,133:    374  99 101
1720113180,164:    393  99 101
1720113180,164:    404  99 101
1720113180,164:    397  99 101
1720113180,164:    387  99 101
1720113180,164:    390  99 101
1720113180,164:    401  99 101
1720113180,164:    398  99 101
1720113180,164:    371  99 101
1720113180,164:    340  99 101
1720113180,164:    330  99 101
1720113180,164:    337  99 101
1720113180,164:    339  99 101
1720113180,164:    321  99 101
1720113180,164:    297  99 101
1720113180,164:    288  99 101
1720113180,196:    297  99 101
1720113180,196:    300  99 101
1720113180,196:    284  99 101
1720113180,196:    260  99 101
1720113180,196:    252  99 101
1720113180,196:    264  99 101
1720113180,196:    275  99 101
1720113180,196:    269  99 101
1720113180,196:    252  99 101
1720113180,196:    245  99 101
1720113180,196:    252  99 101
1720113180,196:    256  99 101
1720113180,196:    239  99 101
1720113180,196:    209  99 101
1720113180,196:    190  99 101
1720113180,228:    191  99 101
1720113180,228:    199  99 101
1720113180,228:    195  99 101
1720113180,228:    182  99 101
1720113180,228:    179  99 101
1720113180,228:    191  99 101
1720113180,228:    202  99 101
1720113180,228:    195  99 101
1720113180,228:    178  99 101
1720113180,228:    175  99 101
1720113180,228:    192  99 101
1720113180,228:    210  99 101
1720113180,228:    205  99 101
1720113180,228:    181  99 101
1720113180,228:    167  99 101
1720113180,228:    177  99 101
1720113180,228:    191  99 101
1720113180,228:    180  99 101
1720113180,228:    145  99 101
1720113180,228:    115  99 101
1720113180,228:    113  99 101
1720113180,228:    125  99 101
1720113180,260:    121  99 101
1720113180,260:     98  99 101
1720113180,260:     81  99 101
1720113180,260:     87  99 101
1720113180,260:    104  99 101
1720113180,260:    100  99 101
1720113180,260:     69  99 101
1720113180,260:     40  99 101
1720113180,260:     40  99 101
1720113180,260:     61  99 101
1720113180,260:     68  99 101
1720113180,260:     51  99 101
1720113180,260:     32  99 101
1720113180,260:     37  99 101
1720113180,260:     59  99 101
1720113180,292:     71  99 101
1720113180,292:     59  99 101
1720113180,292:     40  99 101
1720113180,292:     40  99 101
1720113180,292:     55  99 101
1720113180,292:     61  99 101
1720113180,292:     48  99 101
1720113180,292:     31  99 101
1720113180,292:     31  99 101
1720113180,292:     45  99 101
1720113180,292:     49  99 101
1720113180,292:     31  99 101
1720113180,292:     11  99 101
1720113180,292:     12  99 101
1720113180,292:     34  99 101
1720113180,323:     52  99 101
1720113180,323:     51  99 101
1720113180,323:     40  99 101
1720113180,323:     44  99 101
1720113180,323:     68  99 101
1720113180,323:     90  99 101
1720113180,323:     89  99 101
1720113180,323:     73  99 101
1720113180,323:     64  99 101
1720113180,323:     75  99 101
1720113180,323:     94  99 101
1720113180,323:    101  99 101
1720113180,323:     95  99 101
1720113180,323:     93  99 101
1720113180,323:    102  99 101
1720113180,354:    109  99 101
1720113180,354:    100  99 101
1720113180,354:     81  99 101
1720113180,354:     74  99 101
1720113180,354:     86  99 101
1720113180,354:    101  99 101
1720113180,354:     95  99 101
1720113180,354:     73  99 101
1720113180,354:     60  99 101
1720113180,354:     73  99 101
1720113180,354:     98  99 101
1720113180,354:    108  99 101
1720113180,354:    100  99 101
1720113180,354:     95  99 101
1720113180,354:    113  99 101
1720113180,384:    148  99 101
1720113180,384:    179  99 101
1720113180,384:    193  99 101
1720113180,384:    200  99 101
1720113180,384:    211  99 101
1720113180,384:    225  99 101
1720113180,384:    228  99 101
1720113180,384:    212  99 101
1720113180,384:    189  99 101
1720113180,384:    172  99 101
1720113180,384:    158  99 101
1720113180,384:    137  99 101
1720113180,384:    108  99 101
1720113180,384:     86  99 101
1720113180,384:     82  99 101
1720113180,414:     83  99 101
1720113180,414:     68  99 101
1720113180,414:     31  99 101
1720113180,414:     -8  99 101
1720113180,414:    -25  99 101
1720113180,414:    -22  99 101
1720113180,414:    -26  99 101
1720113180,414:    -53  99 101
1720113180,414:    -88  99 101
1720113180,414:   -102  99 101
1720113180,414:    -92  99 101
1720113180,414:    -80  99 101
1720113180,414:    -86  99 101
1720113180,414:   -103  99 101
1720113180,414:   -105  99 101
1720113180,445:    -85  99 101
1720113180,445:    -63  99 101
1720113180,445:    -59  99 101
1720113180,445:    -68  99 101
1720113180,445:    -68  99 101
1720113180,445:    -51  99 101
1720113180,445:    -33  99 101
1720113180,445:    -33  99 101
1720113180,445:    -47  99 101
1720113180,445:    -55  99 101
1720113180,445:    -47  99 101
1720113180,445:    -38  99 101
1720113180,445:    -41  99 101
1720113180,445:    -51  99 101
1720113180,445:    -49  99 101
1720113180,475:    -36  99 101
1720113180,475:    -31  99 101
1720113180,475:    -50  99 101
1720113180,475:    -77  99 101
1720113180,475:    -85  99 101
1720113180,475:    -62  99 101
1720113180,475:    -27  99 101
1720113180,475:     -2  99 101
1720113180,506:     12  99 101
1720113180,506:     36  99 101
1720113180,506:     77  99 101
1720113180,506:     98  99 101
1720113180,506:     56  99 101
1720113180,506:    -44  99 101
1720113180,506:   -152  99 101
1720113180,506:   -243  99 101
1720113180,506:   -350  99 101
1720113180,506:   -528  99 101
1720113180,506:   -778  99 101
1720113180,506:  -1010  99 101
1720113180,506:  -1088  99 101
1720113180,506:   -914  99 101
1720113180,506:   -459  99 101
1720113180,506:    303  99 101
1720113180,506:   1433  99 101
1720113180,506:   2967  99 101
1720113180,506:   4803  99 101
1720113180,506:   6682  99 101
1720113180,506:   8327  99 101
1720113180,506:   9637  99 101
1720113180,537:  10674  90  97
1720113180,537:  11452  90  97
1720113180,537:  11745  90  97
1720113180,537:  11212  90  97
1720113180,537:   9757  90  97
1720113180,537:   7734  90  97
1720113180,537:   5737  90  97
1720113180,537:   4138  90  97
1720113180,537:   2858  90  97
1720113180,537:   1605  90  97
1720113180,537:    290  90  97
1720113180,537:   -837  90  97
1720113180,537:  -1450  90  97
1720113180,537:  -1493  90  97
1720113180,537:  -1230  90  97
1720113180,567:  -1006  90  97
1720113180,567:   -994  90  97
1720113180,567:  -1152  90  97
1720113180,567:  -1356  90  97
1720113180,567:  -1530  90  97
1720113180,567:  -1671  90  97
1720113180,567:  -1806  90  97
1720113180,567:  -1957  90  97
1720113180,567:  -2126  90  97
1720113180,567:  -2290  90  97
1720113180,567:  -2412  90  97
1720113180,567:  -2473  90  97
1720113180,567:  -2491  90  97
1720113180,567:  -2497  90  97
1720113180,567:  -2495  90  97
1720113180,597:  -2472  90  97
1720113180,597:  -2425  90  97
1720113180,597:  -2373  90  97
1720113180,597:  -2337  90  97
1720113180,597:  -2311  90  97
1720113180,597:  -2265  90  97
1720113180,597:  -2182  90  97
1720113180,597:  -2078  90  97
1720113180,597:  -1989  90  97
1720113180,597:  -1928  90  97
1720113180,597:  -1881  90  97
1720113180,597:  -1830  90  97
1720113180,597:  -1777  90  97
1720113180,597:  -1735  90  97
1720113180,597:  -1701  90  97
1720113180,627:  -1654  90  97
1720113180,627:  -1581  90  97
1720113180,627:  -1497  90  97
1720113180,627:  -1428  90  97
1720113180,627:  -1388  90  97
1720113180,627:  -1359  90  97
1720113180,627:  -1322  90  97
1720113180,627:  -1279  90  97
1720113180,627:  -1247  90  97
1720113180,627:  -1226  90  97
1720113180,627:  -1199  90  97
1720113180,627:  -1150  90  97
1720113180,627:  -1093  90  97
1720113180,627:  -1056  90  97
1720113180,627:  -1048  90  97
1720113180,659:  -1045  90  97
1720113180,659:  -1019  90  97
1720113180,659:   -974  90  97
1720113180,659:   -939  90  97
1720113180,659:   -933  90  97
1720113180,659:   -937  90  97
1720113180,659:   -919  90  97
1720113180,659:   -877  90  97
1720113180,659:   -840  90  97
1720113180,659:   -830  90  97
1720113180,659:   -834  90  97
1720113180,659:   -822  90  97
1720113180,659:   -787  90  97
1720113180,659:   -754  90  97
1720113180,659:   -748  90  97
1720113180,691:   -759  90  97
1720113180,691:   -757  90  97
1720113180,691:   -728  90  97
1720113180,691:   -697  90  97
1720113180,691:   -689  90  97
1720113180,691:   -698  90  97
1720113180,691:   -694  90  97
1720113180,691:   -665  90  97
1720113180,691:   -631  90  97
1720113180,691:   -620  90  97
1720113180,691:   -631  90  97
1720113180,691:   -632  90  97
1720113180,691:   -602  90  97
1720113180,691:   -558  90  97
1720113180,691:   -531  90  97
1720113180,722:   -531  90  97
1720113180,722:   -535  90  97
1720113180,722:   -520  90  97
1720113180,722:   -491  90  97
1720113180,722:   -474  90  97
1720113180,722:   -478  90  97
1720113180,722:   -487  90  97
1720113180,722:   -480  90  97
1720113180,722:   -455  90  97
1720113180,722:   -431  90  97
1720113180,722:   -419  90  97
1720113180,722:   -410  90  97
1720113180,722:   -393  90  97
1720113180,722:   -371  90  97
1720113180,722:   -360  90  97
1720113180,722:   -365  90  97
1720113180,722:   -373  90  97
1720113180,722:   -363  90  97
1720113180,722:   -339  90  97
1720113180,722:   -316  90  97
1720113180,722:   -300  90  97
1720113180,722:   -280  90  97
1720113180,722:   -244  90  97
1720113180,753:   -201  90  97
1720113180,753:   -174  90  97
1720113180,753:   -167  90  97
1720113180,753:   -157  90  97
1720113180,753:   -122  90  97
1720113180,753:    -74  90  97
1720113180,753:    -40  90  97
1720113180,753:    -30  90  97
1720113180,753:    -21  90  97
1720113180,753:     14  90  97
1720113180,753:     68  90  97
1720113180,753:    107  90  97
1720113180,753:    112  90  97
1720113180,753:    107  90  97
1720113180,753:    125  90  97
1720113180,785:    167  90  97
1720113180,785:    203  90  97
1720113180,785:    212  90  97
1720113180,785:    213  90  97
1720113180,785:    234  90  97
1720113180,785:    277  90  97
1720113180,785:    314  90  97
1720113180,785:    323  90  97
1720113180,785:    320  90  97
1720113180,785:    338  90  97
1720113180,785:    380  90  97
1720113180,785:    418  90  97
1720113180,785:    426  90  97
1720113180,785:    415  90  97
1720113180,785:    419  90  97
1720113180,817:    449  90  97
1720113180,817:    480  90  97
1720113180,817:    482  90  97
1720113180,817:    461  90  97
1720113180,817:    447  90  97
1720113180,817:    460  90  97
1720113180,817:    486  90  97
1720113180,817:    498  90  97
1720113180,817:    490  90  97
1720113180,817:    480  90  97
1720113180,817:    485  90  97
1720113180,817:    494  90  97
1720113180,817:    485  90  97
1720113180,817:    458  90  97
1720113180,817:    435  90  97
1720113180,847:    436  90  97
1720113180,847:    449  90  97
1720113180,847:    451  90  97
1720113180,847:    433  90  97
1720113180,847:    414  90  97
1720113180,847:    413  90  97
1720113180,847:    424  90  97
1720113180,847:    425  90  97
1720113180,847:    404  90  97
1720113180,847:    379  90  97
1720113180,847:    366  90  97
1720113180,847:    365  90  97
1720113180,847:    357  90  97
1720113180,847:    338  90  97
1720113180,847:    324  90  97
1720113180,847:    326  90  97
1720113180,847:    333  90  97
1720113180,847:    324  90  97
1720113180,847:    294  90  97
1720113180,877:    267  90  97
1720113180,877:    267  90  97
1720113180,877:    286  90  97
1720113180,877:    296  90  97
1720113180,877:    280  90  97
1720113180,877:    251  90  97
1720113180,877:    236  90  97
1720113180,877:    242  90  97
1720113180,877:    248  90  97
1720113180,877:    233  90  97
1720113180,877:    201  90  97
1720113180,877:    175  90  97
1720113180,877:    167  90  97
1720113180,877:    169  90  97
1720113180,877:    165  90  97
1720113180,908:    156  90  97
1720113180,908:    153  90  97
1720113180,908:    156  90  97
1720113180,908:    152  90  97
1720113180,908:    132  90  97
1720113180,908:    109  90  97
1720113180,908:    104  90  97
1720113180,908:    115  90  97
1720113180,938:    120  90  97
1720113180,938:    100  90  97
1720113180,938:     70  90  97
1720113180,938:     59  90  97
1720113180,938:     72  90  97
1720113180,938:     83  90  97
1720113180,938:     67  90  97
1720113180,938:     31  90  97
1720113180,938:      9  90  97
1720113180,938:     16  90  97
1720113180,938:     31  90  97
1720113180,938:     24  90  97
1720113180,938:     -3  90  97
1720113180,938:    -23  90  97
1720113180,938:    -18  90  97
1720113180,938:     -7  90  97
1720113180,938:    -18  90  97
1720113180,938:    -51  90  97
1720113180,938:    -75  90  97
1720113180,938:    -68  90  97
1720113180,938:    -48  90  97
1720113180,938:    -44  90  97
1720113180,969:    -65  90  97
1720113180,969:    -84  90  97
1720113180,969:    -79  90  97
1720113180,969:    -60  90  97
1720113180,969:    -57  90  97
1720113180,969:    -82  90  97
1720113180,969:   -110  90  97
1720113180,969:   -118  90  97
1720113180,969:   -109  90  97
1720113180,969:   -106  90  97
1720113180,969:   -122  90  97
1720113180,969:   -139  90  97
1720113180,969:   -138  90  97
1720113180,969:   -125  90  97
1720113180,969:   -124  90  97
1720113181,001:   -141  90  97
1720113181,001:   -156  90  97
1720113181,001:   -148  90  97
1720113181,001:   -122  90  97
1720113181,001:   -104  90  97
1720113181,001:   -109  90  97
1720113181,001:   -122  90  97
1720113181,001:   -121  90  97
1720113181,031:   -105  90  97
1720113181,031:    -96  90  97
1720113181,031:   -106  90  97
1720113181,031:   -122  90  97
1720113181,031:   -123  90  97
1720113181,031:   -104  90  97
1720113181,031:    -82  90  97
1720113181,031:    -73  90  97
1720113181,031:    -71  90  97
1720113181,031:    -59  90  97
1720113181,031:    -34  90  97
1720113181,031:    -10  90  97
1720113181,031:     -2  90  97
1720113181,031:     -4  90  97
1720113181,031:     -2  90  97
1720113181,031:     10  90  97
1720113181,031:     18  90  97
1720113181,031:     15  90  97
1720113181,031:      8  90  97
1720113181,031:      9  90  97
1720113181,031:     18  90  97
1720113181,031:     17  90  97
1720113181,061:      2  90  97
1720113181,061:     -9  90  97
1720113181,061:      6  90  97
1720113181,061:     43  90  97
1720113181,061:     79  90  97
1720113181,061:     96  90  97
1720113181,061:    106  90  97
1720113181,061:    127  90  97
1720113181,061:    162  90  97
1720113181,061:    187  90  97
1720113181,061:    183  90  97
1720113181,061:    160  90  97
1720113181,061:    139  90  97
1720113181,061:    129  90  97
1720113181,061:    115  90  97
1720113181,061:     86  90  97
1720113181,061:     54  90  97
1720113181,061:     42  90  97
1720113181,061:     53  90  97
1720113181,061:     61  90  97
1720113181,061:     42  90  97
1720113181,061:      4  90  97
1720113181,061:    -24  90  97
1720113181,093:    -24  90  97
1720113181,093:    -15  90  97
1720113181,093:    -27  90  97
1720113181,093:    -65  90  97
1720113181,093:   -100  90  97
1720113181,093:   -104  90  97
1720113181,093:    -86  90  97
1720113181,093:    -80  90  97
1720113181,093:   -100  90  97
1720113181,093:   -122  90  97
1720113181,093:   -118  90  97
1720113181,093:    -90  90  97
1720113181,093:    -72  90  97
1720113181,093:    -80  90  97
1720113181,093:    -96  90  97
1720113181,125:    -89  90  97
1720113181,125:    -61  90  97
1720113181,125:    -41  90  97
1720113181,125:    -50  90  97
1720113181,125:    -72  90  97
1720113181,125:    -75  90  97
1720113181,125:    -53  90  97
1720113181,125:    -32  90  97
1720113181,125:    -33  90  97
1720113181,125:    -45  90  97
1720113181,125:    -43  90  97
1720113181,125:    -21  90  97
1720113181,125:     -5  90  97
1720113181,125:    -15  90  97
1720113181,125:    -42  90  97
1720113181,157:    -53  90  97
1720113181,157:    -35  90  97
1720113181,157:     -5  90  97
1720113181,157:     20  90  97
1720113181,157:     38  90  97
1720113181,157:     67  90  97
1720113181,157:    113  90  97
1720113181,157:    148  90  97
1720113181,157:    137  90  97
1720113181,157:     71  90  97
1720113181,157:    -19  90  97
1720113181,157:   -101  90  97
1720113181,157:   -188  90  97
1720113181,157:   -327  90  97
1720113181,157:   -543  90  97
1720113181,187:   -802  90  97
1720113181,187:  -1006  90  97
1720113181,187:  -1043  90  97
1720113181,187:   -834  90  97
1720113181,187:   -333  90  97
1720113181,187:    507  90  97
1720113181,187:   1734  90  97
1720113181,187:   3326  90  97
1720113181,187:   5125  90  97
1720113181,187:   6880  90  97
1720113181,187:   8385  90  97
1720113181,187:   9587  90  97
1720113181,187:  10523  90  97
1720113181,187:  11132  90  97
1720113181,187:  11170  90  97
1720113181,219:  10390  89  94
1720113181,219:   8832  89  94
1720113181,219:   6898  89  94
1720113181,219:   5091  89  94
1720113181,219:   3650  89  94
1720113181,219:   2447  89  94
1720113181,219:   1253  89  94
1720113181,219:     56  89  94
1720113181,219:   -894  89  94
1720113181,219:  -1347  89  94
1720113181,219:  -1317  89  94
1720113181,219:  -1073  89  94
1720113181,219:   -919  89  94
1720113181,219:   -981  89  94
1720113181,219:  -1186  89  94
1720113181,249:  -1392  89  94
1720113181,249:  -1533  89  94
1720113181,249:  -1634  89  94
1720113181,249:  -1751  89  94
1720113181,249:  -1904  89  94
1720113181,249:  -2062  89  94
1720113181,249:  -2182  89  94
1720113181,249:  -2251  89  94
1720113181,249:  -2294  89  94
1720113181,249:  -2338  89  94
1720113181,249:  -2372  89  94
1720113181,249:  -2368  89  94
1720113181,249:  -2322  89  94
1720113181,249:  -2266  89  94
1720113181,249:  -2231  89  94
1720113181,279:  -2209  89  94
1720113181,279:  -2170  89  94
1720113181,279:  -2097  89  94
1720113181,279:  -2005  89  94
1720113181,279:  -1926  89  94
1720113181,279:  -1868  89  94
1720113181,279:  -1819  89  94
1720113181,279:  -1766  89  94
1720113181,279:  -1720  89  94
1720113181,279:  -1689  89  94
1720113181,279:  -1663  89  94
1720113181,279:  -1618  89  94
1720113181,279:  -1541  89  94
1720113181,279:  -1454  89  94
1720113181,279:  -1386  89  94
1720113181,311:  -1342  89  94
1720113181,311:  -1303  89  94
1720113181,311:  -1253  89  94
1720113181,311:  -1202  89  94
1720113181,311:  -1174  89  94
1720113181,311:  -1170  89  94
1720113181,311:  -1161  89  94
1720113181,311:  -1125  89  94
1720113181,311:  -1070  89  94
1720113181,311:  -1029  89  94
1720113181,311:  -1015  89  94
1720113181,311:  -1012  89  94
1720113181,311:   -993  89  94
1720113181,311:   -959  89  94
1720113181,311:   -931  89  94
1720113181,311:   -919  89  94
1720113181,311:   -911  89  94
1720113181,311:   -889  89  94
1720113181,311:   -858  89  94
1720113181,311:   -838  89  94
1720113181,311:   -834  89  94
1720113181,311:   -826  89  94
1720113181,343:   -800  89  94
1720113181,343:   -767  89  94
1720113181,343:   -754  89  94
1720113181,343:   -765  89  94
1720113181,343:   -775  89  94
1720113181,343:   -760  89  94
1720113181,343:   -727  89  94
1720113181,343:   -704  89  94
1720113181,375:   -702  89  94
1720113181,375:   -704  89  94
1720113181,375:   -687  89  94
1720113181,375:   -655  89  94
1720113181,375:   -635  89  94
1720113181,375:   -638  89  94
1720113181,375:   -644  89  94
1720113181,375:   -628  89  94
1720113181,375:   -593  89  94
1720113181,375:   -565  89  94
1720113181,375:   -562  89  94
1720113181,375:   -567  89  94
1720113181,375:   -553  89  94
1720113181,375:   -519  89  94
1720113181,375:   -493  89  94
1720113181,375:   -495  89  94
1720113181,375:   -513  89  94
1720113181,375:   -516  89  94
1720113181,375:   -492  89  94
1720113181,375:   -464  89  94
1720113181,375:   -457  89  94
1720113181,375:   -464  89  94
1720113181,405:   -461  89  94
1720113181,405:   -436  89  94
1720113181,405:   -410  89  94
1720113181,405:   -406  89  94
1720113181,405:   -417  89  94
1720113181,405:   -413  89  94
1720113181,405:   -383  89  94
1720113181,405:   -347  89  94
1720113181,405:   -330  89  94
1720113181,405:   -328  89  94
1720113181,405:   -312  89  94
1720113181,405:   -269  89  94
1720113181,405:   -223  89  94
1720113181,405:   -204  89  94
1720113181,405:   -209  89  94
1720113181,435:   -205  89  94
1720113181,435:   -168  89  94
1720113181,435:   -115  89  94
1720113181,435:    -81  89  94
1720113181,435:    -71  89  94
1720113181,435:    -60  89  94
1720113181,435:    -23  89  94
1720113181,435:     27  89  94
1720113181,435:     57  89  94
1720113181,435:     58  89  94
1720113181,435:     57  89  94
1720113181,435:     82  89  94
1720113181,435:    128  89  94
1720113181,435:    164  89  94
1720113181,435:    176  89  94
1720113181,465:    184  89  94
1720113181,465:    215  89  94
1720113181,465:    265  89  94
1720113181,465:    303  89  94
1720113181,465:    311  89  94
1720113181,465:    306  89  94
1720113181,465:    318  89  94
1720113181,465:    354  89  94
1720113181,465:    388  89  94
1720113181,465:    402  89  94
1720113181,465:    403  89  94
1720113181,465:    417  89  94
1720113181,465:    448  89  94
1720113181,465:    474  89  94
1720113181,465:    477  89  94
1720113181,497:    466  89  94
1720113181,497:    467  89  94
1720113181,497:    488  89  94
1720113181,497:    511  89  94
1720113181,497:    513  89  94
1720113181,497:    498  89  94
1720113181,497:    491  89  94
1720113181,497:    499  89  94
1720113181,497:    507  89  94
1720113181,497:    493  89  94
1720113181,497:    464  89  94
1720113181,497:    445  89  94
1720113181,497:    450  89  94
1720113181,497:    463  89  94
1720113181,497:    461  89  94
1720113181,527:    444  89  94
1720113181,527:    434  89  94
1720113181,527:    442  89  94
1720113181,527:    451  89  94
1720113181,527:    438  89  94
1720113181,527:    409  89  94
1720113181,527:    388  89  94
1720113181,527:    389  89  94
1720113181,527:    394  89  94
1720113181,527:    380  89  94
1720113181,527:    349  89  94
1720113181,527:    329  89  94
1720113181,527:    336  89  94
1720113181,527:    352  89  94
1720113181,527:    346  89  94
1720113181,557:    316  89  94
1720113181,557:    291  89  94
1720113181,557:    291  89  94
1720113181,557:    303  89  94
1720113181,557:    299  89  94
1720113181,557:    273  89  94
1720113181,557:    248  89  94
1720113181,557:    244  89  94
1720113181,557:    253  89  94
1720113181,557:    247  89  94
1720113181,557:    219  89  94
1720113181,557:    193  89  94
1720113181,557:    190  89  94
1720113181,557:    205  89  94
1720113181,557:    209  89  94
1720113181,589:    191  89  94
1720113181,589:    171  89  94
1720113181,589:    174  89  94
1720113181,589:    195  89  94
1720113181,589:    204  89  94
1720113181,589:    185  89  94
1720113181,589:    157  89  94
1720113181,589:    148  89  94
1720113181,589:    163  89  94
1720113181,589:    175  89  94
1720113181,589:    161  89  94
1720113181,589:    134  89  94
1720113181,589:    124  89  94
1720113181,589:    139  89  94
1720113181,589:    153  89  94
1720113181,619:    141  89  94
1720113181,619:    111  89  94
1720113181,619:     94  89  94
1720113181,619:    100  89  94
1720113181,619:    111  89  94
1720113181,619:    100  89  94
1720113181,619:     74  89  94
1720113181,619:     56  89  94
1720113181,619:     56  89  94
1720113181,619:     56  89  94
1720113181,619:     33  89  94
1720113181,619:     -1  89  94
1720113181,619:    -16  89  94
1720113181,619:      2  89  94
1720113181,619:     28  89  94
1720113181,651:     29  89  94
1720113181,651:      9  89  94
1720113181,651:     -7  89  94
1720113181,651:      2  89  94
1720113181,651:     15  89  94
1720113181,651:      7  89  94
1720113181,651:    -27  89  94
1720113181,651:    -55  89  94
1720113181,651:    -57  89  94
1720113181,651:    -44  89  94
1720113181,651:    -42  89  94
1720113181,651:    -55  89  94
1720113181,651:    -60  89  94
1720113181,651:    -39  89  94
1720113181,651:     -6  89  94
1720113181,683:      7  89  94
1720113181,683:     -9  89  94
1720113181,683:    -30  89  94
1720113181,683:    -29  89  94
1720113181,683:    -11  89  94
1720113181,683:     -2  89  94
1720113181,683:    -16  89  94
1720113181,683:    -35  89  94
1720113181,683:    -35  89  94
1720113181,683:    -20  89  94
1720113181,683:    -14  89  94
1720113181,683:    -32  89  94
1720113181,683:    -54  89  94
1720113181,683:    -52  89  94
1720113181,683:    -26  89  94
1720113181,683:     -8  89  94
1720113181,683:    -19  89  94
1720113181,683:    -45  89  94
1720113181,683:    -52  89  94
1720113181,683:    -33  89  94
1720113181,683:    -15  89  94
1720113181,683:    -22  89  94
1720113181,683:    -42  89  94
1720113181,713:    -44  89  94
1720113181,713:    -19  89  94
1720113181,713:      6  89  94
1720113181,713:      8  89  94
1720113181,713:     -7  89  94
1720113181,713:     -8  89  94
1720113181,713:     12  89  94
1720113181,743:     25  89  94
1720113181,743:      7  89  94
1720113181,743:    -27  89  94
1720113181,743:    -40  89  94
1720113181,743:    -20  89  94
1720113181,743:      7  89  94
1720113181,743:     13  89  94
1720113181,743:      4  89  94
1720113181,743:     12  89  94
1720113181,743:     44  89  94
1720113181,743:     71  89  94
1720113181,743:     64  89  94
1720113181,743:     32  89  94
1720113181,743:     15  89  94
1720113181,743:     28  89  94
1720113181,773:     46  89  94
1720113181,773:     39  89  94
1720113181,773:     17  89  94
1720113181,773:     18  89  94
1720113181,773:     58  89  94
1720113181,773:    107  89  94
1720113181,773:    130  89  94
1720113181,773:    128  89  94
1720113181,773:    134  89  94
1720113181,773:    166  89  94
1720113181,773:    201  89  94
1720113181,773:    210  89  94
1720113181,773:    193  89  94
1720113181,773:    180  89  94
1720113181,773:    188  89  94
1720113181,773:    196  89  94
1720113181,773:    177  89  94
1720113181,773:    133  89  94
1720113181,773:    100  89  94
1720113181,773:    100  89  94
1720113181,773:    118  89  94
1720113181,773:    116  89  94
1720113181,773:     85  89  94
1720113181,805:     51  89  94
1720113181,805:     43  89  94
1720113181,805:     56  89  94
1720113181,805:     59  89  94
1720113181,805:     35  89  94
1720113181,805:      2  89  94
1720113181,805:    -13  89  94
1720113181,805:     -7  89  94
1720113181,805:     -2  89  94
1720113181,805:    -13  89  94
1720113181,805:    -26  89  94
1720113181,805:    -23  89  94
1720113181,805:     -8  89  94
1720113181,805:     -7  89  94
1720113181,805:    -33  89  94
1720113181,836:    -68  89  94
1720113181,836:    -79  89  94
1720113181,836:    -63  89  94
1720113181,836:    -44  89  94
1720113181,836:    -45  89  94
1720113181,836:    -57  89  94
1720113181,836:    -55  89  94
1720113181,836:    -30  89  94
1720113181,836:     -5  89  94
1720113181,836:     -4  89  94
1720113181,836:    -20  89  94
1720113181,836:    -24  89  94
1720113181,836:     -4  89  94
1720113181,836:     21  89  94
1720113181,836:     22  89  94
1720113181,866:     -4  89  94
1720113181,866:    -27  89  94
1720113181,866:    -22  89  94
1720113181,866:      2  89  94
1720113181,866:     17  89  94
1720113181,866:     16  89  94
1720113181,866:     17  89  94
1720113181,866:     40  89  94
1720113181,866:     78  89  94
1720113181,866:     95  89  94
1720113181,866:     62  89  94
1720113181,866:    -11  89  94
1720113181,896:    -92  89  94
1720113181,896:   -168  89  94
1720113181,896:   -266  89  94
1720113181,896:   -420  89  94
1720113181,896:   -637  89  94
1720113181,896:   -868  89  94
1720113181,896:  -1013  89  94
1720113181,896:   -970  89  94
1720113181,896:   -680  89  94
1720113181,896:   -111  89  94
1720113181,896:    782  89  94
1720113181,896:   2052  89  94
1720113181,896:   3670  89  94
1720113181,896:   5446  89  94
1720113181,896:   7096  89  94
1720113181,896:   8431  89  94
1720113181,896:   9467  89  94
1720113181,896:  10289  89  94
1720113181,896:  10808  89  94
1720113181,896:  10709  89  94
1720113181,896:   9745  89  94
1720113181,896:   8056  89  94
1720113181,896:   6150  89  94
1720113181,926:   4512  85  91
1720113181,926:   3244  85  91
1720113181,926:   2113  85  91
1720113181,926:    922  85  91
1720113181,926:   -232  85  91
1720113181,926:  -1051  85  91
1720113181,926:  -1358  85  91
1720113181,956:  -1263  85  91
1720113181,956:  -1053  85  91
1720113181,956:   -965  85  91
1720113181,956:  -1068  85  91
1720113181,956:  -1283  85  91
1720113181,956:  -1497  85  91
1720113181,956:  -1643  85  91
1720113181,956:  -1721  85  91
1720113181,956:  -1780  85  91
1720113181,956:  -1864  85  91
1720113181,956:  -1980  85  91
1720113181,956:  -2098  85  91
1720113181,956:  -2184  85  91
1720113181,956:  -2236  85  91
1720113181,956:  -2269  85  91
1720113181,956:  -2289  85  91
1720113181,956:  -2293  85  91
1720113181,956:  -2281  85  91
1720113181,956:  -2261  85  91
1720113181,956:  -2233  85  91
1720113181,956:  -2185  85  91
1720113181,956:  -2112  85  91
1720113181,956:  -2025  85  91
1720113181,986:  -1946  85  91
1720113181,986:  -1885  85  91
1720113181,986:  -1835  85  91
1720113181,986:  -1784  85  91
1720113181,986:  -1738  85  91
1720113181,986:  -1707  85  91
1720113181,986:  -1686  85  91
1720113182,018:  -1653  85  91
1720113182,018:  -1593  85  91
1720113182,018:  -1521  85  91
1720113182,018:  -1464  85  91
1720113182,018:  -1430  85  91
1720113182,018:  -1398  85  91
1720113182,018:  -1347  85  91
1720113182,018:  -1290  85  91
1720113182,018:  -1252  85  91
1720113182,018:  -1239  85  91
1720113182,018:  -1221  85  91
1720113182,018:  -1175  85  91
1720113182,018:  -1112  85  91
1720113182,018:  -1069  85  91
1720113182,018:  -1060  85  91
1720113182,018:  -1059  85  91
1720113182,018:  -1035  85  91
1720113182,018:   -991  85  91
1720113182,018:   -957  85  91
1720113182,018:   -949  85  91
1720113182,018:   -945  85  91
1720113182,018:   -919  85  91
1720113182,018:   -873  85  91
1720113182,050:   -839  85  91
1720113182,050:   -835  85  91
1720113182,050:   -841  85  91
1720113182,050:   -826  85  91
1720113182,050:   -786  85  91
1720113182,050:   -748  85  91
1720113182,050:   -734  85  91
1720113182,050:   -732  85  91
1720113182,050:   -715  85  91
1720113182,050:   -676  85  91
1720113182,050:   -641  85  91
1720113182,050:   -635  85  91
1720113182,050:   -652  85  91
1720113182,050:   -659  85  91
1720113182,050:   -638  85  91
1720113182,082:   -608  85  91
1720113182,082:   -595  85  91
1720113182,082:   -603  85  91
1720113182,082:   -604  85  91
1720113182,082:   -581  85  91
1720113182,082:   -550  85  91
1720113182,082:   -539  85  91
1720113182,082:   -553  85  91
1720113182,082:   -564  85  91
1720113182,082:   -548  85  91
1720113182,082:   -515  85  91
1720113182,082:   -499  85  91
1720113182,082:   -508  85  91
1720113182,082:   -516  85  91
1720113182,082:   -496  85  91
1720113182,113:   -459  85  91
1720113182,113:   -439  85  91
1720113182,113:   -449  85  91
1720113182,113:   -463  85  91
1720113182,113:   -451  85  91
1720113182,113:   -418  85  91
1720113182,113:   -397  85  91
1720113182,144:   -403  85  91
1720113182,144:   -413  85  91
1720113182,144:   -398  85  91
1720113182,144:   -364  85  91
1720113182,144:   -343  85  91
1720113182,144:   -348  85  91
1720113182,144:   -359  85  91
1720113182,144:   -347  85  91
1720113182,144:   -314  85  91
1720113182,144:   -286  85  91
1720113182,144:   -277  85  91
1720113182,144:   -268  85  91
1720113182,144:   -240  85  91
1720113182,144:   -197  85  91
1720113182,144:   -165  85  91
1720113182,144:   -156  85  91
1720113182,144:   -149  85  91
1720113182,144:   -122  85  91
1720113182,144:    -79  85  91
1720113182,144:    -41  85  91
1720113182,144:    -24  85  91
1720113182,144:    -12  85  91
1720113182,144:     14  85  91
1720113182,175:     54  85  91
1720113182,175:     86  85  91
1720113182,175:     98  85  91
1720113182,175:    106  85  91
1720113182,175:    131  85  91
1720113182,175:    172  85  91
1720113182,175:    207  85  91
1720113182,175:    222  85  91
1720113182,175:    227  85  91
1720113182,175:    245  85  91
1720113182,175:    279  85  91
1720113182,175:    310  85  91
1720113182,175:    317  85  91
1720113182,175:    308  85  91
1720113182,175:    308  85  91
1720113182,207:    330  85  91
1720113182,207:    356  85  91
1720113182,207:    367  85  91
1720113182,207:    362  85  91
1720113182,207:    361  85  91
1720113182,207:    372  85  91
1720113182,207:    384  85  91
1720113182,207:    381  85  91
1720113182,207:    366  85  91
1720113182,207:    360  85  91
1720113182,207:    372  85  91
1720113182,207:    389  85  91
1720113182,207:    390  85  91
1720113182,207:    379  85  91
1720113182,207:    376  85  91
1720113182,207:    389  85  91
1720113182,207:    403  85  91
1720113182,207:    394  85  91
1720113182,207:    367  85  91
1720113182,207:    344  85  91
1720113182,207:    339  85  91
1720113182,207:    339  85  91
1720113182,237:    320  85  91
1720113182,237:    286  85  91
1720113182,237:    264  85  91
1720113182,237:    267  85  91
1720113182,237:    276  85  91
1720113182,237:    265  85  91
1720113182,237:    233  85  91
1720113182,237:    210  85  91
1720113182,237:    218  85  91
1720113182,237:    239  85  91
1720113182,237:    241  85  91
1720113182,237:    216  85  91
1720113182,237:    190  85  91
1720113182,237:    190  85  91
1720113182,237:    205  85  91
1720113182,268:    201  85  91
1720113182,268:    170  85  91
1720113182,268:    135  85  91
1720113182,268:    129  85  91
1720113182,268:    144  85  91
1720113182,268:    149  85  91
1720113182,268:    125  85  91
1720113182,268:     93  85  91
1720113182,268:     83  85  91
1720113182,268:     95  85  91
1720113182,268:    100  85  91
1720113182,268:     76  85  91
1720113182,268:     44  85  91
1720113182,268:     34  85  91
1720113182,268:     53  85  91
1720113182,298:     70  85  91
1720113182,298:     61  85  91
1720113182,298:     38  85  91
1720113182,298:     32  85  91
1720113182,298:     49  85  91
1720113182,298:     60  85  91
1720113182,298:     40  85  91
1720113182,298:     -2  85  91
1720113182,329:    -31  85  91
1720113182,329:    -26  85  91
1720113182,329:     -5  85  91
1720113182,329:      2  85  91
1720113182,329:    -12  85  91
1720113182,329:    -25  85  91
1720113182,329:    -20  85  91
1720113182,329:     -7  85  91
1720113182,329:     -7  85  91
1720113182,329:    -24  85  91
1720113182,329:    -37  85  91
1720113182,329:    -32  85  91
1720113182,329:    -20  85  91
1720113182,329:    -21  85  91
1720113182,329:    -36  85  91
1720113182,329:    -46  85  91
1720113182,329:    -31  85  91
1720113182,329:     -6  85  91
1720113182,329:      1  85  91
1720113182,329:    -20  85  91
1720113182,329:    -50  85  91
1720113182,329:    -65  85  91
1720113182,360:    -61  85  91
1720113182,360:    -58  85  91
1720113182,360:    -68  85  91
1720113182,360:    -78  85  91
1720113182,360:    -74  85  91
1720113182,360:    -60  85  91
1720113182,360:    -54  85  91
1720113182,360:    -64  85  91
1720113182,391:    -73  85  91
1720113182,391:    -64  85  91
1720113182,391:    -42  85  91
1720113182,391:    -32  85  91
1720113182,391:    -47  85  91
1720113182,391:    -70  85  91
1720113182,391:    -76  85  91
1720113182,391:    -64  85  91
1720113182,391:    -55  85  91
1720113182,391:    -68  85  91
1720113182,391:    -93  85  91
1720113182,391:   -106  85  91
1720113182,391:    -99  85  91
1720113182,391:    -85  85  91
1720113182,391:    -80  85  91
1720113182,391:    -80  85  91
1720113182,391:    -70  85  91
1720113182,391:    -50  85  91
1720113182,391:    -37  85  91
1720113182,391:    -40  85  91
1720113182,391:    -45  85  91
1720113182,391:    -37  85  91
1720113182,421:    -18  85  91
1720113182,421:    -12  85  91
1720113182,421:    -25  85  91
1720113182,421:    -42  85  91
1720113182,421:    -37  85  91
1720113182,421:    -15  85  91
1720113182,421:     -4  85  91
1720113182,421:    -21  85  91
1720113182,421:    -47  85  91
1720113182,421:    -49  85  91
1720113182,421:    -17  85  91
1720113182,421:     16  85  91
1720113182,421:     20  85  91
1720113182,421:     -3  85  91
1720113182,421:    -18  85  91
1720113182,451:     -6  85  91
1720113182,451:     16  85  91
1720113182,451:     14  85  91
1720113182,451:    -20  85  91
1720113182,451:    -53  85  91
1720113182,451:    -52  85  91
1720113182,451:    -18  85  91
1720113182,451:     20  85  91
1720113182,481:     43  85  91
1720113182,481:     61  85  91
1720113182,481:     91  85  91
1720113182,481:    126  85  91
1720113182,481:    144  85  91
1720113182,481:    140  85  91
1720113182,481:    136  85  91
1720113182,481:    148  85  91
1720113182,481:    166  85  91
1720113182,481:    161  85  91
1720113182,481:    131  85  91
1720113182,481:    102  85  91
1720113182,481:     99  85  91
1720113182,481:    113  85  91
1720113182,481:    113  85  91
1720113182,481:     88  85  91
1720113182,481:     58  85  91
1720113182,481:     46  85  91
1720113182,481:     47  85  91
1720113182,481:     37  85  91
1720113182,481:     10  85  91
1720113182,481:    -15  85  91
1720113182,512:    -22  85  91
1720113182,512:    -20  85  91
1720113182,512:    -32  85  91
1720113182,512:    -63  85  91
1720113182,512:    -91  85  91
1720113182,512:    -87  85  91
1720113182,512:    -59  85  91
1720113182,512:    -35  85  91
1720113182,512:    -38  85  91
1720113182,512:    -56  85  91
1720113182,512:    -63  85  91
1720113182,512:    -52  85  91
1720113182,512:    -40  85  91
1720113182,512:    -44  85  91
1720113182,512:    -58  85  91
1720113182,543:    -61  85  91
1720113182,543:    -46  85  91
1720113182,543:    -29  85  91
1720113182,543:    -29  85  91
1720113182,543:    -38  85  91
1720113182,543:    -38  85  91
1720113182,543:    -22  85  91
1720113182,543:     -7  85  91
1720113182,543:    -12  85  91
1720113182,543:    -34  85  91
1720113182,543:    -48  85  91
1720113182,543:    -46  85  91
1720113182,543:    -37  85  91
1720113182,543:    -39  85  91
1720113182,543:    -50  85  91
1720113182,543:    -49  85  91
1720113182,543:    -21  85  91
1720113182,543:     17  85  91
1720113182,543:     40  85  91
1720113182,543:     43  85  91
1720113182,543:     31  85  91
1720113182,543:      8  85  91
1720113182,543:    -36  85  91
1720113182,575:   -108  85  91
1720113182,575:   -193  85  91
1720113182,575:   -282  85  91
1720113182,575:   -387  85  91
1720113182,575:   -540  85  91
1720113182,575:   -725  85  91
1720113182,575:   -836  85  91
1720113182,575:   -738  85  91
1720113182,575:   -368  85  91
1720113182,575:    263  85  91
1720113182,575:   1176  85  91
1720113182,575:   2443  85  91
1720113182,575:   4060  85  91
1720113182,575:   5799  85  91
1720113182,575:   7304  85  91
1720113182,607:   8396  87  88
1720113182,607:   9201  87  88
1720113182,607:   9907  87  88
1720113182,607:  10380  87  88
1720113182,607:  10169  87  88
1720113182,607:   8968  87  88
1720113182,607:   7040  87  88
1720113182,607:   5062  87  88
1720113182,607:   3535  87  88
1720113182,607:   2406  87  88
1720113182,607:   1303  87  88
1720113182,607:     55  87  88
1720113182,607:  -1092  87  88
1720113182,607:  -1775  87  88
1720113182,607:  -1896  87  88
1720113182,638:  -1686  87  88
1720113182,638:  -1447  87  88
1720113182,638:  -1328  87  88
1720113182,638:  -1327  87  88
1720113182,638:  -1400  87  88
1720113182,638:  -1520  87  88
1720113182,638:  -1650  87  88
1720113182,638:  -1732  87  88
1720113182,638:  -1747  87  88
1720113182,638:  -1740  87  88
1720113182,638:  -1784  87  88
1720113182,638:  -1891  87  88
1720113182,638:  -2004  87  88
1720113182,638:  -2064  87  88
1720113182,638:  -2070  87  88
1720113182,669:  -2062  87  88
1720113182,669:  -2077  87  88
1720113182,669:  -2106  87  88
1720113182,669:  -2113  87  88
1720113182,669:  -2081  87  88
1720113182,669:  -2028  87  88
1720113182,669:  -1979  87  88
1720113182,701:  -1930  87  88
1720113182,701:  -1858  87  88
1720113182,701:  -1757  87  88
1720113182,701:  -1658  87  88
1720113182,701:  -1597  87  88
1720113182,701:  -1577  87  88
1720113182,701:  -1569  87  88
1720113182,701:  -1543  87  88
1720113182,701:  -1497  87  88
1720113182,701:  -1448  87  88
1720113182,701:  -1404  87  88
1720113182,701:  -1353  87  88
1720113182,701:  -1286  87  88
1720113182,701:  -1216  87  88
1720113182,701:  -1169  87  88
1720113182,733:  -1155  87  88
1720113182,733:  -1153  87  88
1720113182,733:  -1133  87  88
1720113182,733:  -1091  87  88
1720113182,733:  -1050  87  88
1720113182,733:  -1025  87  88
1720113182,733:  -1004  87  88
1720113182,733:   -969  87  88
1720113182,733:   -923  87  88
1720113182,733:   -890  87  88
1720113182,733:   -882  87  88
1720113182,733:   -881  87  88
1720113182,733:   -860  87  88
1720113182,733:   -818  87  88
1720113182,733:   -784  87  88
1720113182,733:   -776  87  88
1720113182,733:   -776  87  88
1720113182,733:   -757  87  88
1720113182,733:   -720  87  88
1720113182,733:   -689  87  88
1720113182,733:   -684  87  88
1720113182,733:   -687  87  88
1720113182,733:   -671  87  88
1720113182,763:   -634  87  88
1720113182,763:   -600  87  88
1720113182,763:   -590  87  88
1720113182,763:   -592  87  88
1720113182,763:   -580  87  88
1720113182,763:   -552  87  88
1720113182,763:   -530  87  88
1720113182,793:   -534  87  88
1720113182,793:   -550  87  88
1720113182,793:   -550  87  88
1720113182,793:   -522  87  88
1720113182,793:   -486  87  88
1720113182,793:   -469  87  88
1720113182,793:   -466  87  88
1720113182,793:   -454  87  88
1720113182,793:   -425  87  88
1720113182,793:   -394  87  88
1720113182,793:   -384  87  88
1720113182,793:   -395  87  88
1720113182,793:   -404  87  88
1720113182,793:   -396  87  88
1720113182,793:   -382  87  88
1720113182,793:   -380  87  88
1720113182,793:   -392  87  88
1720113182,793:   -402  87  88
1720113182,793:   -398  87  88
1720113182,793:   -386  87  88
1720113182,793:   -383  87  88
1720113182,793:   -391  87  88
1720113182,793:   -394  87  88
1720113182,824:   -380  87  88
1720113182,824:   -359  87  88
1720113182,824:   -346  87  88
1720113182,824:   -347  87  88
1720113182,824:   -344  87  88
1720113182,824:   -321  87  88
1720113182,824:   -287  87  88
1720113182,824:   -266  87  88
1720113182,824:   -268  87  88
1720113182,824:   -275  87  88
1720113182,824:   -264  87  88
1720113182,824:   -231  87  88
1720113182,824:   -198  87  88
1720113182,824:   -181  87  88
1720113182,824:   -169  87  88
1720113182,854:   -146  87  88
1720113182,854:   -111  87  88
1720113182,854:    -81  87  88
1720113182,854:    -70  87  88
1720113182,854:    -60  87  88
1720113182,854:    -31  87  88
1720113182,854:     11  87  88
1720113182,854:     43  87  88
1720113182,854:     49  87  88
1720113182,854:     47  87  88
1720113182,854:     64  87  88
1720113182,854:     98  87  88
1720113182,854:    120  87  88
1720113182,854:    112  87  88
1720113182,854:     95  87  88
1720113182,854:    101  87  88
1720113182,854:    134  87  88
1720113182,854:    164  87  88
1720113182,854:    171  87  88
1720113182,885:    169  87  88
1720113182,885:    186  87  88
1720113182,885:    223  87  88
1720113182,885:    252  87  88
1720113182,885:    250  87  88
1720113182,885:    234  87  88
1720113182,885:    233  87  88
1720113182,885:    256  87  88
1720113182,915:    277  87  88
1720113182,915:    274  87  88
1720113182,915:    257  87  88
1720113182,915:    255  87  88
1720113182,915:    276  87  88
1720113182,915:    296  87  88
1720113182,915:    291  87  88
1720113182,915:    267  87  88
1720113182,915:    257  87  88
1720113182,915:    273  87  88
1720113182,915:    294  87  88
1720113182,915:    292  87  88
1720113182,915:    270  87  88
1720113182,915:    255  87  88
1720113182,915:    263  87  88
1720113182,915:    278  87  88
1720113182,915:    272  87  88
1720113182,915:    243  87  88
1720113182,915:    217  87  88
1720113182,915:    216  87  88
1720113182,915:    232  87  88
1720113182,915:    237  87  88
1720113182,945:    223  87  88
1720113182,945:    209  87  88
1720113182,945:    216  87  88
1720113182,945:    237  87  88
1720113182,945:    245  87  88
1720113182,945:    227  87  88
1720113182,945:    206  87  88
1720113182,945:    205  87  88
1720113182,976:    221  87  88
1720113182,976:    229  87  88
1720113182,976:    214  87  88
1720113182,976:    192  87  88
1720113182,976:    188  87  88
1720113182,976:    203  87  88
1720113182,976:    211  87  88
1720113182,976:    193  87  88
1720113182,976:    161  87  88
1720113182,976:    143  87  88
1720113182,976:    150  87  88
1720113182,976:    161  87  88
1720113182,976:    154  87  88
1720113182,976:    135  87  88
1720113182,976:    125  87  88
1720113182,976:    132  87  88
1720113182,976:    142  87  88
1720113182,976:    134  87  88
1720113182,976:    111  87  88
1720113182,976:     93  87  88
1720113182,976:     92  87  88
1720113182,976:     99  87  88
1720113183,006:     92  87  88
1720113183,006:     73  87  88
1720113183,006:     59  87  88
1720113183,006:     60  87  88
1720113183,006:     66  87  88
1720113183,006:     58  87  88
1720113183,006:     36  87  88
1720113183,006:     20  87  88
1720113183,037:     26  87  88
1720113183,037:     42  87  88
1720113183,037:     50  87  88
1720113183,037:     42  87  88
1720113183,037:     37  87  88
1720113183,037:     46  87  88
1720113183,037:     59  87  88
1720113183,037:     54  87  88
1720113183,037:     30  87  88
1720113183,037:     13  87  88
1720113183,037:     21  87  88
1720113183,037:     44  87  88
1720113183,037:     53  87  88
1720113183,037:     39  87  88
1720113183,037:     24  87  88
1720113183,037:     31  87  88
1720113183,037:     55  87  88
1720113183,037:     67  87  88
1720113183,037:     53  87  88
1720113183,037:     31  87  88
1720113183,037:     27  87  88
1720113183,037:     41  87  88
1720113183,069:     53  87  88
1720113183,069:     48  87  88
1720113183,069:     38  87  88
1720113183,069:     39  87  88
1720113183,069:     51  87  88
1720113183,069:     57  87  88
1720113183,069:     49  87  88
1720113183,069:     40  87  88
1720113183,069:     43  87  88
1720113183,069:     54  87  88
1720113183,069:     59  87  88
1720113183,069:     54  87  88
1720113183,069:     51  87  88
1720113183,069:     59  87  88
1720113183,069:     70  87  88
1720113183,069:     64  87  88
1720113183,069:     43  87  88
1720113183,069:     29  87  88
1720113183,069:     41  87  88
1720113183,069:     71  87  88
1720113183,069:     89  87  88
1720113183,069:     83  87  88
1720113183,069:     72  87  88
1720113183,100:     79  87  88
1720113183,100:    101  87  88
1720113183,100:    112  87  88
1720113183,100:     95  87  88
1720113183,100:     63  87  88
1720113183,100:     44  87  88
1720113183,100:     43  87  88
1720113183,131:     43  87  88
1720113183,131:     33  87  88
1720113183,131:     28  87  88
1720113183,131:     51  87  88
1720113183,131:     98  87  88
1720113183,131:    140  87  88
1720113183,131:    154  87  88
1720113183,131:    155  87  88
1720113183,131:    172  87  88
1720113183,131:    213  87  88
1720113183,131:    253  87  88
1720113183,131:    266  87  88
1720113183,131:    253  87  88
1720113183,131:    238  87  88
1720113183,131:    234  87  88
1720113183,131:    232  87  88
1720113183,131:    214  87  88
1720113183,131:    184  87  88
1720113183,131:    162  87  88
1720113183,131:    158  87  88
1720113183,131:    158  87  88
1720113183,131:    142  87  88
1720113183,131:    110  87  88
1720113183,161:     84  87  88
1720113183,161:     82  87  88
1720113183,161:     93  87  88
1720113183,161:     87  87  88
1720113183,161:     54  87  88
1720113183,161:     16  87  88
1720113183,161:      2  87  88
1720113183,193:     15  87  88
1720113183,193:     29  87  88
1720113183,193:     22  87  88
1720113183,193:      5  87  88
1720113183,193:      5  87  88
1720113183,193:     23  87  88
1720113183,193:     35  87  88
1720113183,193:     25  87  88
1720113183,193:      7  87  88
1720113183,193:     12  87  88
1720113183,193:     39  87  88
1720113183,193:     61  87  88
1720113183,193:     54  87  88
1720113183,193:     34  87  88
1720113183,193:     33  87  88
1720113183,193:     56  87  88
1720113183,193:     73  87  88
1720113183,193:     59  87  88
1720113183,193:     25  87  88
1720113183,193:     10  87  88
1720113183,193:     28  87  88
1720113183,193:     52  87  88
1720113183,193:     52  87  88
1720113183,225:     28  87  88
1720113183,225:     13  87  88
1720113183,225:     26  87  88
1720113183,225:     50  87  88
1720113183,225:     62  87  88
1720113183,225:     62  87  88
1720113183,225:     70  87  88
1720113183,225:    100  87  88
1720113183,225:    141  87  88
1720113183,225:    160  87  88
1720113183,225:    132  87  88
1720113183,225:     66  87  88
1720113183,225:    -11  87  88
1720113183,225:    -83  87  88
1720113183,225:   -170  87  88
1720113183,255:   -307  87  88
1720113183,255:   -505  87  88
1720113183,255:   -728  87  88
1720113183,255:   -882  87  88
1720113183,255:   -855  87  88
1720113183,255:   -581  87  88
1720113183,255:    -31  87  88
1720113183,255:    836  87  88
1720113183,255:   2084  87  88
1720113183,255:   3715  87  88
1720113183,255:   5559  87  88
1720113183,255:   7310  87  88
1720113183,255:   8730  87  88
1720113183,255:   9817  87  88
1720113183,255:  10703  87  88
1720113183,285:  11351  91  88
1720113183,285:  11427  91  88
1720113183,285:  10568  91  88
1720113183,285:   8808  91  88
1720113183,285:   6678  91  88
1720113183,285:   4800  91  88
1720113183,285:   3395  91  88
1720113183,317:   2215  91  88
1720113183,317:    952  91  88
1720113183,317:   -356  91  88
1720113183,317:  -1353  91  88
1720113183,317:  -1749  91  88
1720113183,317:  -1617  91  88
1720113183,317:  -1302  91  88
1720113183,317:  -1122  91  88
1720113183,317:  -1165  91  88
1720113183,317:  -1333  91  88
1720113183,317:  -1506  91  88
1720113183,317:  -1639  91  88
1720113183,317:  -1745  91  88
1720113183,317:  -1844  91  88
1720113183,317:  -1941  91  88
1720113183,317:  -2038  91  88
1720113183,317:  -2138  91  88
1720113183,317:  -2232  91  88
1720113183,317:  -2305  91  88
1720113183,317:  -2342  91  88
1720113183,317:  -2334  91  88
1720113183,317:  -2295  91  88
1720113183,317:  -2259  91  88
1720113183,347:  -2245  91  88
1720113183,347:  -2238  91  88
1720113183,347:  -2206  91  88
1720113183,347:  -2142  91  88
1720113183,347:  -2064  91  88
1720113183,347:  -1993  91  88
1720113183,347:  -1928  91  88
1720113183,347:  -1856  91  88
1720113183,347:  -1776  91  88
1720113183,347:  -1714  91  88
1720113183,347:  -1686  91  88
1720113183,347:  -1674  91  88
1720113183,347:  -1642  91  88
1720113183,347:  -1576  91  88
1720113183,347:  -1499  91  88
1720113183,379:  -1441  91  88
1720113183,379:  -1405  91  88
1720113183,379:  -1366  91  88
1720113183,379:  -1313  91  88
1720113183,379:  -1259  91  88
1720113183,379:  -1226  91  88
1720113183,379:  -1207  91  88
1720113183,379:  -1176  91  88
1720113183,379:  -1120  91  88
1720113183,379:  -1061  91  88
1720113183,379:  -1025  91  88
1720113183,379:  -1010  91  88
1720113183,379:   -989  91  88
1720113183,379:   -945  91  88
1720113183,379:   -898  91  88
1720113183,411:   -875  91  88
1720113183,411:   -875  91  88
1720113183,411:   -867  91  88
1720113183,411:   -827  91  88
1720113183,411:   -772  91  88
1720113183,411:   -740  91  88
1720113183,411:   -741  91  88
1720113183,411:   -748  91  88
1720113183,411:   -734  91  88
1720113183,411:   -701  91  88
1720113183,411:   -678  91  88
1720113183,411:   -679  91  88
1720113183,411:   -686  91  88
1720113183,411:   -672  91  88
1720113183,411:   -640  91  88
1720113183,443:   -615  91  88
1720113183,443:   -615  91  88
1720113183,443:   -625  91  88
1720113183,443:   -620  91  88
1720113183,443:   -594  91  88
1720113183,443:   -569  91  88
1720113183,443:   -565  91  88
1720113183,443:   -574  91  88
1720113183,443:   -575  91  88
1720113183,443:   -558  91  88
1720113183,443:   -540  91  88
1720113183,443:   -541  91  88
1720113183,443:   -555  91  88
1720113183,443:   -555  91  88
1720113183,443:   -531  91  88
1720113183,443:   -503  91  88
1720113183,443:   -494  91  88
1720113183,443:   -499  91  88
1720113183,443:   -495  91  88
1720113183,443:   -470  91  88
1720113183,443:   -442  91  88
1720113183,443:   -436  91  88
1720113183,474:   -446  91  88
1720113183,474:   -445  91  88
1720113183,474:   -420  91  88
1720113183,474:   -391  91  88
1720113183,474:   -383  91  88
1720113183,474:   -393  91  88
1720113183,474:   -393  91  88
1720113183,474:   -368  91  88
1720113183,474:   -336  91  88
1720113183,474:   -326  91  88
1720113183,474:   -337  91  88
1720113183,474:   -341  91  88
1720113183,474:   -318  91  88
1720113183,474:   -282  91  88
1720113183,474:   -258  91  88
1720113183,504:   -248  91  88
1720113183,504:   -232  91  88
1720113183,504:   -192  91  88
1720113183,504:   -143  91  88
1720113183,504:   -111  91  88
1720113183,504:   -100  91  88
1720113183,504:    -86  91  88
1720113183,504:    -48  91  88
1720113183,504:      7  91  88
1720113183,504:     49  91  88
1720113183,504:     67  91  88
1720113183,504:     80  91  88
1720113183,504:    110  91  88
1720113183,504:    153  91  88
1720113183,504:    185  91  88
1720113183,534:    192  91  88
1720113183,534:    192  91  88
1720113183,534:    212  91  88
1720113183,534:    254  91  88
1720113183,534:    295  91  88
1720113183,534:    317  91  88
1720113183,534:    327  91  88
1720113183,534:    348  91  88
1720113183,564:    388  91  88
1720113183,564:    423  91  88
1720113183,564:    433  91  88
1720113183,564:    423  91  88
1720113183,564:    417  91  88
1720113183,564:    426  91  88
1720113183,564:    438  91  88
1720113183,564:    436  91  88
1720113183,564:    428  91  88
1720113183,564:    431  91  88
1720113183,564:    448  91  88
1720113183,564:    460  91  88
1720113183,564:    450  91  88
1720113183,564:    430  91  88
1720113183,564:    424  91  88
1720113183,594:    440  91  88
1720113183,594:    455  91  88
1720113183,594:    450  91  88
1720113183,594:    431  91  88
1720113183,594:    424  91  88
1720113183,594:    436  91  88
1720113183,594:    445  91  88
1720113183,594:    428  91  88
1720113183,594:    393  91  88
1720113183,594:    371  91  88
1720113183,594:    373  91  88
1720113183,594:    382  91  88
1720113183,594:    375  91  88
1720113183,594:    352  91  88
1720113183,594:    340  91  88
1720113183,594:    349  91  88
1720113183,594:    358  91  88
1720113183,594:    344  91  88
1720113183,594:    313  91  88
1720113183,594:    292  91  88
1720113183,594:    299  91  88
1720113183,594:    313  91  88
1720113183,625:    306  91  88
1720113183,625:    276  91  88
1720113183,625:    250  91  88
1720113183,625:    249  91  88
1720113183,625:    260  91  88
1720113183,625:    253  91  88
1720113183,625:    221  91  88
1720113183,625:    187  91  88
1720113183,625:    179  91  88
1720113183,625:    193  91  88
1720113183,625:    202  91  88
1720113183,625:    194  91  88
1720113183,625:    183  91  88
1720113183,625:    190  91  88
1720113183,625:    211  91  88
1720113183,656:    220  91  88
1720113183,656:    205  91  88
1720113183,656:    184  91  88
1720113183,656:    181  91  88
1720113183,656:    196  91  88
1720113183,656:    202  91  88
1720113183,656:    184  91  88
1720113183,656:    157  91  88
1720113183,656:    146  91  88
1720113183,656:    152  91  88
1720113183,656:    154  91  88
1720113183,656:    131  91  88
1720113183,656:     95  91  88
1720113183,656:     74  91  88
1720113183,656:     77  91  88
1720113183,656:     85  91  88
1720113183,656:     77  91  88
1720113183,656:     56  91  88
1720113183,656:     42  91  88
1720113183,656:     46  91  88
1720113183,656:     51  91  88
1720113183,656:     40  91  88
1720113183,656:     18  91  88
1720113183,687:      5  91  88
1720113183,687:      9  91  88
1720113183,687:     16  91  88
1720113183,687:      6  91  88
1720113183,687:    -16  91  88
1720113183,687:    -27  91  88
1720113183,687:    -20  91  88
1720113183,717:    -14  91  88
1720113183,717:    -32  91  88
1720113183,717:    -65  91  88
1720113183,717:    -84  91  88
1720113183,717:    -74  91  88
1720113183,717:    -52  91  88
1720113183,717:    -45  91  88
1720113183,717:    -57  91  88
1720113183,717:    -65  91  88
1720113183,717:    -53  91  88
1720113183,717:    -34  91  88
1720113183,717:    -33  91  88
1720113183,717:    -52  91  88
1720113183,717:    -70  91  88
1720113183,717:    -69  91  88
1720113183,747:    -57  91  88
1720113183,747:    -55  91  88
1720113183,747:    -67  91  88
1720113183,747:    -75  91  88
1720113183,747:    -67  91  88
1720113183,747:    -50  91  88
1720113183,747:    -49  91  88
1720113183,747:    -67  91  88
1720113183,747:    -85  91  88
1720113183,747:    -82  91  88
1720113183,747:    -62  91  88
1720113183,747:    -46  91  88
1720113183,747:    -46  91  88
1720113183,747:    -47  91  88
1720113183,747:    -36  91  88
1720113183,779:    -16  91  88
1720113183,779:    -12  91  88
1720113183,779:    -32  91  88
1720113183,779:    -56  91  88
1720113183,779:    -58  91  88
1720113183,779:    -41  91  88
1720113183,779:    -31  91  88
1720113183,779:    -45  91  88
1720113183,779:    -66  91  88
1720113183,779:    -68  91  88
1720113183,779:    -50  91  88
1720113183,779:    -37  91  88
1720113183,779:    -50  91  88
1720113183,779:    -72  91  88
1720113183,779:    -75  91  88
1720113183,811:    -56  91  88
1720113183,811:    -37  91  88
1720113183,811:    -40  91  88
1720113183,811:    -51  91  88
1720113183,811:    -39  91  88
1720113183,811:     -3  91  88
1720113183,811:     26  91  88
1720113183,811:     19  91  88
1720113183,811:    -12  91  88
1720113183,811:    -26  91  88
1720113183,811:     -6  91  88
1720113183,811:     20  91  88
1720113183,811:     14  91  88
1720113183,811:    -21  91  88
1720113183,811:    -44  91  88
1720113183,811:    -26  91  88
1720113183,811:     18  91  88
1720113183,811:     48  91  88
1720113183,811:     55  91  88
1720113183,811:     64  91  88
1720113183,811:     99  91  88
1720113183,811:    145  91  88
1720113183,811:    171  91  88
1720113183,843:    170  91  88
1720113183,843:    169  91  88
1720113183,843:    185  91  88
1720113183,843:    198  91  88
1720113183,843:    179  91  88
1720113183,843:    129  91  88
1720113183,843:     90  91  88
1720113183,875:     87  91  88
1720113183,875:    102  91  88
1720113183,875:     97  91  88
1720113183,875:     66  91  88
1720113183,875:     40  91  88
1720113183,875:     42  91  88
1720113183,875:     58  91  88
1720113183,875:     54  91  88
1720113183,875:     23  91  88
1720113183,875:     -8  91  88
1720113183,875:    -17  91  88
1720113183,875:    -12  91  88
1720113183,875:    -19  91  88
1720113183,875:    -42  91  88
1720113183,875:    -59  91  88
1720113183,875:    -52  91  88
1720113183,875:    -29  91  88
1720113183,875:    -18  91  88
1720113183,875:    -29  91  88
1720113183,875:    -44  91  88
1720113183,905:    -44  91  88
1720113183,905:    -28  91  88
1720113183,905:    -16  91  88
1720113183,905:    -23  91  88
1720113183,905:    -36  91  88
1720113183,905:    -34  91  88
1720113183,905:    -18  91  88
1720113183,905:    -11  91  88
1720113183,905:    -25  91  88
1720113183,905:    -49  91  88
1720113183,905:    -54  91  88
1720113183,905:    -36  91  88
1720113183,905:    -16  91  88
1720113183,905:    -20  91  88
1720113183,905:    -40  91  88
1720113183,937:    -49  91  88
1720113183,937:    -39  91  88
1720113183,937:    -27  91  88
1720113183,937:    -37  91  88
1720113183,937:    -58  91  88
1720113183,937:    -52  91  88
1720113183,937:     -6  91  88
1720113183,937:     55  91  88
1720113183,937:     97  91  88
1720113183,937:    116  91  88
1720113183,937:    123  91  88
1720113183,937:    116  91  88
1720113183,937:     74  91  88
1720113183,937:    -12  91  88
1720113183,937:   -133  91  88
1720113183,968:   -274  91  88
1720113183,968:   -445  91  88
1720113183,968:   -665  91  88
1720113183,968:   -907  91  88
1720113183,968:  -1061  91  88
1720113183,968:   -981  91  88
1720113183,968:   -570  91  88
1720113183,968:    194  91  88
1720113183,968:   1306  91  88
1720113183,968:   2758  91  88
1720113183,968:   4504  91  88
1720113183,968:   6382  91  88
1720113183,968:   8141  91  88
1720113183,968:   9583  91  88
1720113183,968:  10675  91  88
1720113183,998:  11449  86  87
1720113183,998:  11802  86  87
1720113183,998:  11460  86  87
1720113183,998:  10230  86  87
1720113183,998:   8309  86  87
1720113183,998:   6239  86  87
1720113183,998:   4507  86  87
1720113183,998:   3170  86  87
1720113183,998:   1945  86  87
1720113183,998:    634  86  87
1720113183,998:   -589  86  87
1720113183,998:  -1352  86  87
1720113183,998:  -1503  86  87
1720113183,998:  -1276  86  87
1720113183,998:  -1062  86  87
1720113184,028:  -1073  86  87
1720113184,028:  -1252  86  87
1720113184,028:  -1443  86  87
1720113184,028:  -1586  86  87
1720113184,028:  -1722  86  87
1720113184,028:  -1883  86  87
1720113184,028:  -2051  86  87
1720113184,028:  -2193  86  87
1720113184,058:  -2311  86  87
1720113184,058:  -2423  86  87
1720113184,058:  -2520  86  87
1720113184,058:  -2578  86  87
1720113184,058:  -2588  86  87
1720113184,058:  -2566  86  87
1720113184,058:  -2537  86  87
1720113184,058:  -2508  86  87
1720113184,058:  -2467  86  87
1720113184,058:  -2408  86  87
1720113184,058:  -2346  86  87
1720113184,058:  -2296  86  87
1720113184,058:  -2248  86  87
1720113184,058:  -2179  86  87
1720113184,058:  -2083  86  87
1720113184,058:  -1988  86  87
1720113184,058:  -1925  86  87
1720113184,058:  -1894  86  87
1720113184,058:  -1865  86  87
1720113184,058:  -1813  86  87
1720113184,058:  -1744  86  87
1720113184,058:  -1680  86  87
1720113184,088:  -1629  86  87
1720113184,088:  -1573  86  87
1720113184,088:  -1505  86  87
1720113184,088:  -1438  86  87
1720113184,088:  -1394  86  87
1720113184,088:  -1372  86  87
1720113184,088:  -1352  86  87
1720113184,088:  -1315  86  87
1720113184,088:  -1269  86  87
1720113184,088:  -1236  86  87
1720113184,088:  -1219  86  87
1720113184,088:  -1201  86  87
1720113184,088:  -1166  86  87
1720113184,088:  -1127  86  87
1720113184,088:  -1104  86  87
1720113184,118:  -1097  86  87
1720113184,118:  -1084  86  87
1720113184,118:  -1047  86  87
1720113184,118:  -1001  86  87
1720113184,118:   -974  86  87
1720113184,118:   -974  86  87
1720113184,118:   -978  86  87
1720113184,118:   -958  86  87
1720113184,118:   -916  86  87
1720113184,118:   -883  86  87
1720113184,118:   -876  86  87
1720113184,118:   -880  86  87
1720113184,118:   -869  86  87
1720113184,118:   -840  86  87
1720113184,118:   -819  86  87
1720113184,118:   -823  86  87
1720113184,118:   -838  86  87
1720113184,118:   -839  86  87
1720113184,118:   -818  86  87
1720113184,118:   -796  86  87
1720113184,118:   -791  86  87
1720113184,118:   -794  86  87
1720113184,118:   -782  86  87
1720113184,149:   -750  86  87
1720113184,149:   -721  86  87
1720113184,149:   -717  86  87
1720113184,149:   -730  86  87
1720113184,149:   -729  86  87
1720113184,149:   -702  86  87
1720113184,149:   -667  86  87
1720113184,149:   -651  86  87
1720113184,149:   -651  86  87
1720113184,149:   -642  86  87
1720113184,149:   -609  86  87
1720113184,149:   -571  86  87
1720113184,149:   -558  86  87
1720113184,149:   -571  86  87
1720113184,149:   -578  86  87
1720113184,181:   -558  86  87
1720113184,181:   -525  86  87
1720113184,181:   -510  86  87
1720113184,181:   -517  86  87
1720113184,181:   -518  86  87
1720113184,181:   -491  86  87
1720113184,181:   -449  86  87
1720113184,181:   -426  86  87
1720113184,181:   -426  86  87
1720113184,181:   -422  86  87
1720113184,181:   -393  86  87
1720113184,181:   -350  86  87
1720113184,181:   -324  86  87
1720113184,181:   -320  86  87
1720113184,181:   -313  86  87
1720113184,213:   -279  86  87
1720113184,213:   -231  86  87
1720113184,213:   -198  86  87
1720113184,213:   -190  86  87
1720113184,213:   -176  86  87
1720113184,213:   -132  86  87
1720113184,213:    -68  86  87
1720113184,213:    -19  86  87
1720113184,213:      0  86  87
1720113184,213:     12  86  87
1720113184,213:     47  86  87
1720113184,213:    102  86  87
1720113184,213:    145  86  87
1720113184,213:    159  86  87
1720113184,213:    165  86  87
1720113184,245:    192  86  87
1720113184,245:    240  86  87
1720113184,245:    284  86  87
1720113184,245:    308  86  87
1720113184,245:    326  86  87
1720113184,245:    358  86  87
1720113184,245:    404  86  87
1720113184,245:    437  86  87
1720113184,245:    444  86  87
1720113184,245:    443  86  87
1720113184,245:    460  86  87
1720113184,245:    494  86  87
1720113184,245:    521  86  87
1720113184,245:    522  86  87
1720113184,245:    509  86  87
1720113184,277:    509  86  87
1720113184,277:    526  86  87
1720113184,277:    540  86  87
1720113184,277:    534  86  87
1720113184,277:    515  86  87
1720113184,277:    506  86  87
1720113184,277:    515  86  87
1720113184,277:    528  86  87
1720113184,277:    526  86  87
1720113184,277:    511  86  87
1720113184,277:    501  86  87
1720113184,277:    505  86  87
1720113184,277:    509  86  87
1720113184,277:    496  86  87
1720113184,277:    468  86  87
1720113184,308:    445  86  87
1720113184,308:    439  86  87
1720113184,308:    441  86  87
1720113184,308:    431  86  87
1720113184,308:    409  86  87
1720113184,308:    393  86  87
1720113184,308:    394  86  87
1720113184,308:    398  86  87
1720113184,308:    384  86  87
1720113184,308:    351  86  87
1720113184,308:    328  86  87
1720113184,308:    331  86  87
1720113184,308:    348  86  87
1720113184,308:    349  86  87
1720113184,308:    328  86  87
1720113184,338:    310  86  87
1720113184,338:    314  86  87
1720113184,338:    327  86  87
1720113184,338:    321  86  87
1720113184,338:    291  86  87
1720113184,338:    264  86  87
1720113184,338:    260  86  87
1720113184,338:    268  86  87
1720113184,338:    258  86  87
1720113184,338:    225  86  87
1720113184,338:    196  86  87
1720113184,338:    197  86  87
1720113184,338:    217  86  87
1720113184,338:    220  86  87
1720113184,338:    193  86  87
1720113184,338:    159  86  87
1720113184,338:    150  86  87
1720113184,338:    165  86  87
1720113184,338:    176  86  87
1720113184,338:    162  86  87
1720113184,338:    137  86  87
1720113184,338:    127  86  87
1720113184,368:    135  86  87
1720113184,368:    141  86  87
1720113184,368:    126  86  87
1720113184,368:    104  86  87
1720113184,368:     97  86  87
1720113184,368:    108  86  87
1720113184,368:    115  86  87
1720113184,368:    103  86  87
1720113184,368:     87  86  87
1720113184,368:     86  86  87
1720113184,368:     99  86  87
1720113184,368:    100  86  87
1720113184,368:     75  86  87
1720113184,368:     44  86  87
1720113184,368:     38  86  87
1720113184,398:     61  86  87
1720113184,398:     83  86  87
1720113184,398:     77  86  87
1720113184,398:     53  86  87
1720113184,398:     44  86  87
1720113184,398:     62  86  87
1720113184,398:     81  86  87
1720113184,398:     71  86  87
1720113184,398:     38  86  87
1720113184,398:     14  86  87
1720113184,398:     15  86  87
1720113184,398:     25  86  87
1720113184,398:     18  86  87
1720113184,398:     -2  86  87
1720113184,398:    -11  86  87
1720113184,428:      0  86  87
1720113184,428:     11  86  87
1720113184,428:     -6  86  87
1720113184,428:    -41  86  87
1720113184,428:    -63  86  87
1720113184,428:    -57  86  87
1720113184,428:    -43  86  87
1720113184,428:    -53  86  87
1720113184,428:    -84  86  87
1720113184,428:   -101  86  87
1720113184,428:    -87  86  87
1720113184,428:    -59  86  87
1720113184,428:    -54  86  87
1720113184,428:    -81  86  87
1720113184,428:   -109  86  87
1720113184,459:   -108  86  87
1720113184,459:    -87  86  87
1720113184,459:    -79  86  87
1720113184,459:    -96  86  87
1720113184,459:   -117  86  87
1720113184,459:   -118  86  87
1720113184,459:   -104  86  87
1720113184,459:   -106  86  87
1720113184,459:   -134  86  87
1720113184,459:   -160  86  87
1720113184,459:   -153  86  87
1720113184,459:   -118  86  87
1720113184,459:    -94  86  87
1720113184,459:   -103  86  87
1720113184,459:   -120  86  87
1720113184,489:   -108  86  87
1720113184,489:    -64  86  87
1720113184,489:    -30  86  87
1720113184,489:    -38  86  87
1720113184,489:    -72  86  87
1720113184,489:    -89  86  87
1720113184,489:    -75  86  87
1720113184,489:    -57  86  87
1720113184,489:    -67  86  87
1720113184,489:    -96  86  87
1720113184,489:   -107  86  87
1720113184,489:    -83  86  87
1720113184,489:    -50  86  87
1720113184,489:    -38  86  87
1720113184,489:    -41  86  87
1720113184,519:    -25  86  87
1720113184,519:     22  86  87
1720113184,519:     72  86  87
1720113184,519:     91  86  87
1720113184,519:     87  86  87
1720113184,519:     92  86  87
1720113184,519:    119  86  87
1720113184,519:    137  86  87
1720113184,519:    114  86  87
1720113184,519:     62  86  87
1720113184,519:     28  86  87
1720113184,519:     36  86  87
1720113184,519:     61  86  87
1720113184,519:     62  86  87
1720113184,519:     34  86  87
1720113184,549:     11  86  87
1720113184,549:     16  86  87
1720113184,549:     32  86  87
1720113184,549:     25  86  87
1720113184,549:    -10  86  87
1720113184,549:    -46  86  87
1720113184,549:    -58  86  87
1720113184,549:    -57  86  87
1720113184,549:    -67  86  87
1720113184,549:    -90  86  87
1720113184,549:    -99  86  87
1720113184,549:    -79  86  87
1720113184,549:    -48  86  87
1720113184,549:    -37  86  87
1720113184,549:    -53  86  87
1720113184,581:    -68  86  87
1720113184,581:    -58  86  87
1720113184,581:    -31  86  87
1720113184,581:    -16  86  87
1720113184,581:    -27  86  87
1720113184,581:    -41  86  87
1720113184,581:    -35  86  87
1720113184,581:    -11  86  87
1720113184,581:      3  86  87
1720113184,581:     -7  86  87
1720113184,581:    -22  86  87
1720113184,581:    -19  86  87
1720113184,581:      3  86  87
1720113184,581:     19  86  87
1720113184,581:     16  86  87
1720113184,613:      3  86  87
1720113184,613:      2  86  87
1720113184,613:      9  86  87
1720113184,613:      5  86  87
1720113184,613:    -20  86  87
1720113184,613:    -44  86  87
1720113184,613:    -33  86  87
1720113184,613:     14  86  87
1720113184,613:     62  86  87
1720113184,613:     84  86  87
1720113184,613:     87  86  87
1720113184,613:     83  86  87
1720113184,613:     66  86  87
1720113184,613:     14  86  87
1720113184,613:    -79  86  87
1720113184,613:   -196  86  87
1720113184,613:   -326  86  87
1720113184,613:   -485  86  87
1720113184,613:   -694  86  87
1720113184,613:   -913  86  87
1720113184,613:  -1018  86  87
1720113184,613:   -879  86  87
1720113184,613:   -439  86  87
1720113184,645:    304  86  87
1720113184,645:   1365  86  87
1720113184,645:   2771  86  87
1720113184,645:   4463  86  87
1720113184,645:   6222  86  87
1720113184,645:   7774  86  87
1720113184,645:   8992  86  87
1720113184,677:   9933  89  88
1720113184,677:  10639  89  88
1720113184,677:  10921  89  88
1720113184,677:  10451  89  88
1720113184,677:   9125  89  88
1720113184,677:   7283  89  88
1720113184,677:   5494  89  88
1720113184,677:   4096  89  88
1720113184,677:   2972  89  88
1720113184,677:   1823  89  88
1720113184,677:    583  89  88
1720113184,677:   -471  89  88
1720113184,677:  -1023  89  88
1720113184,677:  -1055  89  88
1720113184,677:   -858  89  88
1720113184,709:   -749  89  88
1720113184,709:   -833  89  88
1720113184,709:  -1023  89  88
1720113184,709:  -1205  89  88
1720113184,709:  -1351  89  88
1720113184,709:  -1489  89  88
1720113184,709:  -1629  89  88
1720113184,709:  -1755  89  88
1720113184,709:  -1864  89  88
1720113184,709:  -1977  89  88
1720113184,709:  -2098  89  88
1720113184,709:  -2199  89  88
1720113184,709:  -2252  89  88
1720113184,709:  -2262  89  88
1720113184,709:  -2258  89  88
1720113184,739:  -2260  89  88
1720113184,739:  -2257  89  88
1720113184,739:  -2224  89  88
1720113184,739:  -2160  89  88
1720113184,739:  -2096  89  88
1720113184,739:  -2051  89  88
1720113184,739:  -2010  89  88
1720113184,739:  -1945  89  88
1720113184,739:  -1857  89  88
1720113184,739:  -1781  89  88
1720113184,739:  -1746  89  88
1720113184,739:  -1739  89  88
1720113184,739:  -1715  89  88
1720113184,739:  -1651  89  88
1720113184,739:  -1569  89  88
1720113184,739:  -1504  89  88
1720113184,739:  -1461  89  88
1720113184,739:  -1417  89  88
1720113184,739:  -1354  89  88
1720113184,739:  -1286  89  88
1720113184,739:  -1240  89  88
1720113184,739:  -1222  89  88
1720113184,739:  -1205  89  88
1720113184,769:  -1167  89  88
1720113184,769:  -1117  89  88
1720113184,769:  -1080  89  88
1720113184,769:  -1066  89  88
1720113184,769:  -1054  89  88
1720113184,769:  -1026  89  88
1720113184,769:   -986  89  88
1720113184,769:   -960  89  88
1720113184,769:   -952  89  88
1720113184,769:   -942  89  88
1720113184,769:   -912  89  88
1720113184,769:   -870  89  88
1720113184,769:   -842  89  88
1720113184,769:   -836  89  88
1720113184,769:   -833  89  88
1720113184,800:   -809  89  88
1720113184,800:   -769  89  88
1720113184,800:   -737  89  88
1720113184,800:   -725  89  88
1720113184,800:   -721  89  88
1720113184,800:   -707  89  88
1720113184,800:   -686  89  88
1720113184,831:   -674  89  88
1720113184,831:   -675  89  88
1720113184,831:   -676  89  88
1720113184,831:   -665  89  88
1720113184,831:   -649  89  88
1720113184,831:   -646  89  88
1720113184,831:   -654  89  88
1720113184,831:   -654  89  88
1720113184,831:   -630  89  88
1720113184,831:   -597  89  88
1720113184,831:   -581  89  88
1720113184,831:   -592  89  88
1720113184,831:   -606  89  88
1720113184,831:   -596  89  88
1720113184,831:   -563  89  88
1720113184,887:   -533  89  88
1720113184,887:   -526  89  88
1720113184,887:   -528  89  88
1720113184,887:   -518  89  88
1720113184,887:   -492  89  88
1720113184,887:   -469  89  88
1720113184,887:   -466  89  88
1720113184,887:   -472  89  88
1720113184,887:   -467  89  88
1720113184,887:   -446  89  88
1720113184,887:   -424  89  88
1720113184,887:   -412  89  88
1720113184,887:   -409  89  88
1720113184,887:   -399  89  88
1720113184,887:   -382  89  88
1720113184,887:   -368  89  88
1720113184,887:   -364  89  88
1720113184,887:   -363  89  88
1720113184,887:   -350  89  88
1720113184,887:   -325  89  88
1720113184,887:   -301  89  88
1720113184,887:   -291  89  88
1720113184,887:   -287  89  88
1720113184,887:   -268  89  88
1720113184,887:   -228  89  88
1720113184,887:   -181  89  88
1720113184,887:   -150  89  88
1720113184,887:   -138  89  88
1720113184,887:   -125  89  88
1720113184,887:    -87  89  88
1720113184,887:    -30  89  88
1720113184,887:     23  89  88
1720113184,887:     55  89  88
1720113184,887:     75  89  88
1720113184,887:    100  89  88
1720113184,926:    134  89  88
1720113184,926:    164  89  88
1720113184,926:    180  89  88
1720113184,926:    195  89  88
1720113184,926:    222  89  88
1720113184,926:    260  89  88
1720113184,926:    293  89  88
1720113184,926:    313  89  88
1720113184,926:    330  89  88
1720113184,926:    359  89  88
1720113184,926:    392  89  88
1720113184,926:    410  89  88
1720113184,926:    406  89  88
1720113184,926:    397  89  88
1720113184,926:    405  89  88
1720113184,926:    425  89  88
1720113184,926:    437  89  88
1720113184,926:    434  89  88
1720113184,926:    432  89  88
1720113184,926:    452  89  88
1720113184,926:    485  89  88
1720113184,926:    503  89  88
1720113184,958:    493  89  88
1720113184,958:    475  89  88
1720113184,958:    477  89  88
1720113184,958:    498  89  88
1720113184,958:    513  89  88
1720113184,958:    501  89  88
1720113184,958:    476  89  88
1720113184,958:    467  89  88
1720113184,958:    479  89  88
1720113184,958:    490  89  88
1720113184,958:    481  89  88
1720113184,958:    459  89  88
1720113184,958:    449  89  88
1720113184,958:    459  89  88
1720113184,958:    470  89  88
1720113185,410:    464  89  88
1720113185,410:    450  89  88
1720113185,410:    449  89  88
1720113185,410:    465  89  88
1720113185,410:    473  89  88
1720113185,410:    452  89  88
1720113185,410:    415  89  88
1720113185,410:    393  89  88
1720113185,410:    398  89  88
1720113185,410:    405  89  88
1720113185,410:    389  89  88
1720113185,410:    355  89  88
1720113185,410:    333  89  88
1720113185,410:    338  89  88
1720113185,410:    350  89  88
1720113185,410:    340  89  88
1720113185,410:    306  89  88
1720113185,410:    277  89  88
1720113185,410:    273  89  88
1720113185,410:    278  89  88
1720113185,410:    263  89  88
1720113185,410:    225  89  88
1720113185,410:    193  89  88
1720113185,410:    189  89  88
1720113185,410:    200  89  88
1720113185,410:    194  89  88
1720113185,410:    161  89  88
1720113185,410:    131  89  88
1720113185,410:    131  89  88
1720113185,410:    154  89  88
1720113185,410:    168  89  88
1720113185,410:    158  89  88
1720113185,410:    142  89  88
1720113185,410:    146  89  88
1720113185,410:    163  89  88
1720113185,410:    164  89  88
1720113185,410:    136  89  88
1720113185,410:    102  89  88
1720113185,410:     88  89  88
1720113185,410:     92  89  88
1720113185,410:     91  89  88
1720113185,410:     72  89  88
1720113185,410:     51  89  88
1720113185,410:     48  89  88
1720113185,410:     57  89  88
1720113185,410:     55  89  88
1720113185,410:     33  89  88
1720113185,410:      9  89  88
1720113185,410:      6  89  88
1720113185,410:     18  89  88
1720113185,410:     21  89  88
1720113185,410:      3  89  88
1720113185,410:    -17  89  88
1720113185,410:    -15  89  88
1720113185,410:      5  89  88
1720113185,410:     15  89  88
1720113185,410:     -2  89  88
1720113185,410:    -29  89  88
1720113185,410:    -37  89  88
1720113185,410:    -21  89  88
1720113185,410:     -6  89  88
1720113185,410:    -13  89  88
1720113185,410:    -33  89  88
1720113185,410:    -40  89  88
1720113185,442:    -28  89  88
1720113185,442:    -18  89  88
1720113185,442:    -34  89  88
1720113185,442:    -67  89  88
1720113185,442:    -89  89  88
1720113185,442:    -86  89  88
1720113185,442:    -73  89  88
1720113185,442:    -77  89  88
1720113185,442:    -98  89  88
1720113185,442:   -115  89  88
1720113185,442:   -112  89  88
1720113185,442:   -100  89  88
1720113185,442:    -99  89  88
1720113185,442:   -113  89  88
1720113185,442:   -125  89  88
1720113185,442:   -122  89  88
1720113185,442:   -108  89  88
1720113185,442:   -100  89  88
1720113185,442:    -99  89  88
1720113185,442:    -94  89  88
1720113185,442:    -79  89  88
1720113185,442:    -66  89  88
1720113185,442:    -72  89  88
1720113185,442:    -97  89  88
1720113185,442:   -118  89  88
1720113185,442:   -120  89  88
1720113185,442:   -109  89  88
1720113185,442:   -102  89  88
1720113185,442:   -106  89  88
1720113185,442:   -106  89  88
1720113185,442:    -86  89  88
1720113185,442:    -50  89  88
1720113185,442:    -19  89  88
1720113185,442:     -1  89  88
1720113185,442:     11  89  88
1720113185,442:     30  89  88
1720113185,442:     54  89  88
1720113185,442:     67  89  88
1720113185,442:     64  89  88
1720113185,442:     58  89  88
1720113185,442:     61  89  88
1720113185,442:     69  89  88
1720113185,442:     63  89  88
1720113185,442:     39  89  88
1720113185,442:     16  89  88
1720113185,442:     12  89  88
1720113185,442:     25  89  88
1720113185,442:     31  89  88
1720113185,442:     13  89  88
1720113185,442:    -19  89  88
1720113185,442:    -39  89  88
1720113185,442:    -42  89  88
1720113185,442:    -52  89  88
1720113185,442:    -86  89  88
1720113185,442:   -135  89  88
1720113185,442:   -168  89  88
1720113185,442:   -172  89  88
1720113185,442:   -164  89  88
1720113185,442:   -165  89  88
1720113185,442:   -175  89  88
1720113185,442:   -171  89  88
1720113185,442:   -144  89  88
1720113185,442:   -118  89  88
1720113185,442:   -118  89  88
1720113185,472:   -139  89  88
1720113185,472:   -149  89  88
1720113185,472:   -132  89  88
1720113185,472:   -106  89  88
1720113185,472:   -100  89  88
1720113185,472:   -113  89  88
1720113185,472:   -117  89  88
1720113185,472:    -96  89  88
1720113185,472:    -71  89  88
1720113185,472:    -69  89  88
1720113185,472:    -90  89  88
1720113185,472:   -102  89  88
1720113185,472:    -89  89  88
1720113185,472:    -69  89  88
1720113185,472:    -72  89  88
1720113185,472:    -99  89  88
1720113185,472:   -116  89  88
1720113185,472:    -99  89  88
1720113185,472:    -69  89  88
1720113185,472:    -58  89  88
1720113185,472:    -63  89  88
1720113185,472:    -57  89  88
1720113185,472:    -22  89  88
1720113185,472:     20  89  88
1720113185,472:     24  89  88
1720113185,472:    -28  89  88
1720113185,472:   -108  89  88
1720113185,472:   -177  89  88
1720113185,472:   -229  89  88
1720113185,472:   -301  89  88
1720113185,472:   -429  89  88
1720113185,472:   -614  89  88
1720113185,472:   -793  89  88
1720113185,472:   -859  89  88
1720113185,472:   -728  89  88
1720113185,472:   -375  89  88
1720113185,472:    207  89  88
1720113185,472:   1080  89  88
1720113185,472:   2319  89  88
1720113185,472:   3872  89  88
1720113185,472:   5486  89  88
1720113185,472:   6855  89  88
1720113185,472:   7875  89  88
1720113185,472:   8687  89  88
1720113185,472:   9401  89  88
1720113185,472:   9813  89  88
1720113185,472:   9514  89  88
1720113185,472:   8321  89  88
1720113185,472:   6559  89  88
1720113185,472:   4827  89  88
1720113185,472:   3486  89  88
1720113185,472:   2432  89  88
1720113185,472:   1372  89  88
1720113185,472:    229  89  88
1720113185,472:   -766  89  88
1720113185,472:  -1339  89  88
1720113185,472:  -1452  89  88
1720113185,472:  -1298  89  88
1720113185,472:  -1117  89  88
1720113185,472:  -1048  89  88
1720113185,472:  -1122  89  88
1720113185,472:  -1290  89  88
1720113185,472:  -1468  89  88
1720113185,472:  -1582  89  88
1720113185,536:  -1621  92  90
1720113185,536:  -1638  92  90
1720113185,536:  -1689  92  90
1720113185,536:  -1782  92  90
1720113185,536:  -1873  92  90
1720113185,536:  -1933  92  90
1720113185,536:  -1977  92  90
1720113185,536:  -2023  92  90
1720113185,536:  -2059  92  90
1720113185,536:  -2064  92  90
1720113185,536:  -2046  92  90
1720113185,536:  -2032  92  90
1720113185,536:  -2028  92  90
1720113185,536:  -2006  92  90
1720113185,536:  -1941  92  90
1720113185,536:  -1843  92  90
1720113185,536:  -1755  92  90
1720113185,536:  -1701  92  90
1720113185,536:  -1670  92  90
1720113185,536:  -1635  92  90
1720113185,536:  -1591  92  90
1720113185,536:  -1555  92  90
1720113185,536:  -1537  92  90
1720113185,536:  -1519  92  90
1720113185,536:  -1475  92  90
1720113185,536:  -1409  92  90
1720113185,536:  -1349  92  90
1720113185,536:  -1317  92  90
1720113185,536:  -1303  92  90
1720113185,536:  -1281  92  90
1720113185,536:  -1242  92  90
1720113185,536:  -1203  92  90
1720113185,536:  -1176  92  90
1720113185,536:  -1155  92  90
1720113185,536:  -1122  92  90
1720113185,536:  -1072  92  90
1720113185,536:  -1022  92  90
1720113185,536:   -988  92  90
1720113185,536:   -968  92  90
1720113185,536:   -946  92  90
1720113185,536:   -915  92  90
1720113185,536:   -885  92  90
1720113185,536:   -866  92  90
1720113185,536:   -851  92  90
1720113185,536:   -825  92  90
1720113185,536:   -783  92  90
1720113185,536:   -743  92  90
1720113185,536:   -724  92  90
1720113185,536:   -720  92  90
1720113185,536:   -706  92  90
1720113185,536:   -672  92  90
1720113185,536:   -634  92  90
1720113185,536:   -617  92  90
1720113185,536:   -619  92  90
1720113185,536:   -613  92  90
1720113185,536:   -580  92  90
1720113185,536:   -536  92  90
1720113185,536:   -514  92  90
1720113185,536:   -524  92  90
1720113185,536:   -537  92  90
1720113185,536:   -523  92  90
1720113185,536:   -484  92  90
1720113185,536:   -450  92  90
1720113185,536:   -440  92  90
1720113185,568:   -443  92  90
1720113185,568:   -435  92  90
1720113185,568:   -417  92  90
1720113185,568:   -404  92  90
1720113185,568:   -405  92  90
1720113185,568:   -411  92  90
1720113185,568:   -406  92  90
1720113185,568:   -392  92  90
1720113185,568:   -384  92  90
1720113185,568:   -384  92  90
1720113185,568:   -382  92  90
1720113185,568:   -369  92  90
1720113185,568:   -352  92  90
1720113185,568:   -346  92  90
1720113185,568:   -355  92  90
1720113185,568:   -369  92  90
1720113185,568:   -372  92  90
1720113185,568:   -367  92  90
1720113185,568:   -364  92  90
1720113185,568:   -369  92  90
1720113185,568:   -373  92  90
1720113185,568:   -370  92  90
1720113185,568:   -361  92  90
1720113185,568:   -356  92  90
1720113185,568:   -354  92  90
1720113185,568:   -343  92  90
1720113185,568:   -321  92  90
1720113185,568:   -294  92  90
1720113185,568:   -276  92  90
1720113185,568:   -265  92  90
1720113185,568:   -242  92  90
1720113185,568:   -200  92  90
1720113185,568:   -150  92  90
1720113185,568:   -118  92  90
1720113185,568:   -109  92  90
1720113185,568:   -102  92  90
1720113185,568:    -74  92  90
1720113185,568:    -25  92  90
1720113185,568:     20  92  90
1720113185,568:     43  92  90
1720113185,568:     53  92  90
1720113185,568:     71  92  90
1720113185,568:    105  92  90
1720113185,568:    135  92  90
1720113185,568:    143  92  90
1720113185,568:    137  92  90
1720113185,568:    141  92  90
1720113185,568:    168  92  90
1720113185,568:    200  92  90
1720113185,568:    213  92  90
1720113185,568:    205  92  90
1720113185,568:    202  92  90
1720113185,616:    221  92  90
1720113185,616:    248  92  90
1720113185,616:    256  92  90
1720113185,616:    240  92  90
1720113185,616:    226  92  90
1720113185,616:    238  92  90
1720113185,616:    270  92  90
1720113185,616:    292  92  90
1720113185,616:    295  92  90
1720113185,616:    299  92  90
1720113185,616:    322  92  90
1720113185,616:    355  92  90
1720113185,616:    370  92  90
1720113185,616:    356  92  90
1720113185,616:    339  92  90
1720113185,616:    344  92  90
1720113185,616:    365  92  90
1720113185,616:    372  92  90
1720113185,616:    353  92  90
1720113185,616:    330  92  90
1720113185,616:    329  92  90
1720113185,616:    348  92  90
1720113185,616:    356  92  90
1720113185,616:    341  92  90
1720113185,616:    322  92  90
1720113185,616:    326  92  90
1720113185,616:    349  92  90
1720113185,616:    361  92  90
1720113185,616:    348  92  90
1720113185,616:    327  92  90
1720113185,652:    327  92  90
1720113185,652:    343  92  90
1720113185,652:    346  92  90
1720113185,652:    319  92  90
1720113185,652:    281  92  90
1720113185,652:    265  92  90
1720113185,652:    274  92  90
1720113185,652:    280  92  90
1720113185,652:    265  92  90
1720113185,652:    241  92  90
1720113185,652:    238  92  90
1720113185,652:    256  92  90
1720113185,652:    267  92  90
1720113185,652:    250  92  90
1720113185,652:    221  92  90
1720113185,677:    212  92  90
1720113185,677:    230  92  90
1720113185,677:    250  92  90
1720113185,677:    242  92  90
1720113185,677:    215  92  90
1720113185,677:    199  92  90
1720113185,677:    209  92  90
1720113185,677:    229  92  90
1720113185,677:    230  92  90
1720113185,677:    210  92  90
1720113185,677:    190  92  90
1720113185,677:    188  92  90
1720113185,677:    198  92  90
1720113185,677:    202  92  90
1720113185,677:    197  92  90
1720113185,709:    195  92  90
1720113185,709:    201  92  90
1720113185,709:    203  92  90
1720113185,709:    188  92  90
1720113185,709:    162  92  90
1720113185,709:    147  92  90
1720113185,709:    153  92  90
1720113185,709:    163  92  90
1720113185,709:    156  92  90
1720113185,709:    135  92  90
1720113185,709:    125  92  90
1720113185,709:    138  92  90
1720113185,709:    156  92  90
1720113185,709:    150  92  90
1720113185,709:    120  92  90
1720113185,740:     94  92  90
1720113185,740:     94  92  90
1720113185,740:    110  92  90
1720113185,740:    110  92  90
1720113185,740:     84  92  90
1720113185,740:     54  92  90
1720113185,740:     46  92  90
1720113185,740:     57  92  90
1720113185,740:     61  92  90
1720113185,740:     42  92  90
1720113185,740:     14  92  90
1720113185,740:      4  92  90
1720113185,740:     15  92  90
1720113185,740:     27  92  90
1720113185,740:     24  92  90
1720113185,772:     16  92  90
1720113185,772:     24  92  90
1720113185,772:     44  92  90
1720113185,772:     52  92  90
1720113185,772:     29  92  90
1720113185,772:     -4  92  90
1720113185,772:    -14  92  90
1720113185,772:      8  92  90
1720113185,772:     30  92  90
1720113185,772:     20  92  90
1720113185,772:    -12  92  90
1720113185,772:    -27  92  90
1720113185,772:     -6  92  90
1720113185,772:     24  92  90
1720113185,772:     27  92  90
1720113185,804:      3  92  90
1720113185,804:    -14  92  90
1720113185,804:     -2  92  90
1720113185,804:     21  92  90
1720113185,804:     25  92  90
1720113185,804:     10  92  90
1720113185,804:      7  92  90
1720113185,804:     32  92  90
1720113185,804:     65  92  90
1720113185,804:     77  92  90
1720113185,804:     73  92  90
1720113185,804:     84  92  90
1720113185,804:    121  92  90
1720113185,804:    159  92  90
1720113185,804:    170  92  90
1720113185,804:    159  92  90
1720113185,804:    161  92  90
1720113185,804:    183  92  90
1720113185,804:    199  92  90
1720113185,804:    175  92  90
1720113185,804:    124  92  90
1720113185,804:     89  92  90
1720113185,838:     94  92  90
1720113185,838:    116  92  90
1720113185,838:    116  92  90
1720113185,838:     88  92  90
1720113185,838:     60  92  90
1720113185,838:     56  92  90
1720113185,838:     63  92  90
1720113185,838:     50  92  90
1720113185,838:      8  92  90
1720113185,838:    -38  92  90
1720113185,838:    -65  92  90
1720113185,838:    -75  92  90
1720113185,838:    -90  92  90
1720113185,838:   -117  92  90
1720113185,838:   -140  92  90
1720113185,898:   -139  92  90
1720113185,898:   -119  92  90
1720113185,898:   -106  92  90
1720113185,898:   -112  92  90
1720113185,898:   -125  92  90
1720113185,898:   -123  92  90
1720113185,898:   -103  92  90
1720113185,898:    -86  92  90
1720113185,898:    -86  92  90
1720113185,898:    -95  92  90
1720113185,898:    -93  92  90
1720113185,898:    -80  92  90
1720113185,898:    -74  92  90
1720113185,898:    -86  92  90
1720113185,898:   -104  92  90
1720113185,898:   -105  92  90
1720113185,898:    -91  92  90
1720113185,898:    -81  92  90
1720113185,898:    -92  92  90
1720113185,898:   -110  92  90
1720113185,929:   -113  92  90
1720113185,929:   -100  92  90
1720113185,929:    -93  92  90
1720113185,929:   -109  92  90
1720113185,929:   -132  92  90
1720113185,929:   -130  92  90
