timestamp: ADC HeartRate4sAverage HeartRate30sAverage
1720811588,604:   -286  80  80
1720811588,604:   -255  80  80
1720811588,604:   -247  80  80
1720811588,604:   -249  80  80
1720811588,604:   -235  80  80
1720811588,604:   -202  80  80
1720811588,604:   -180  80  80
1720811588,604:   -191  80  80
1720811588,604:   -215  80  80
1720811588,604:   -213  80  80
1720811588,604:   -177  80  80
1720811588,604:   -141  80  80
1720811588,604:   -135  80  80
1720811588,604:   -153  80  80
1720811588,604:   -154  80  80
1720811588,636:   -125  80  80
1720811588,636:    -94  80  80
1720811588,636:    -99  80  80
1720811588,636:   -131  80  80
1720811588,636:   -150  80  80
1720811588,636:   -132  80  80
1720811588,636:    -97  80  80
1720811588,636:    -87  80  80
1720811588,636:   -104  80  80
1720811588,636:   -116  80  80
1720811588,636:    -99  80  80
1720811588,636:    -73  80  80
1720811588,636:    -76  80  80
1720811588,636:   -111  80  80
1720811588,636:   -146  80  80
1720811588,668:   -152  80  80
1720811588,668:   -140  80  80
1720811588,668:   -143  80  80
1720811588,668:   -165  80  80
1720811588,668:   -180  80  80
1720811588,668:   -168  80  80
1720811588,668:   -151  80  80
1720811588,668:   -164  80  80
1720811588,668:   -208  80  80
1720811588,668:   -243  80  80
1720811588,668:   -237  80  80
1720811588,668:   -207  80  80
1720811588,668:   -196  80  80
1720811588,668:   -217  80  80
1720811588,668:   -239  80  80
1720811588,668:   -224  80  80
1720811588,668:   -177  80  80
1720811588,668:   -140  80  80
1720811588,668:   -140  80  80
1720811588,668:   -153  80  80
1720811588,668:   -145  80  80
1720811588,668:   -114  80  80
1720811588,700:    -92  80  80
1720811588,700:    -97  80  80
1720811588,700:   -106  80  80
1720811588,700:    -85  80  80
1720811588,700:    -37  80  80
1720811588,700:     -4  80  80
1720811588,700:    -14  80  80
1720811588,700:    -44  80  80
1720811588,700:    -48  80  80
1720811588,700:    -16  80  80
1720811588,700:     16  80  80
1720811588,700:     16  80  80
1720811588,700:     -4  80  80
1720811588,700:     -2  80  80
1720811588,700:     30  80  80
1720811588,732:     59  80  80
1720811588,732:     53  80  80
1720811588,732:     24  80  80
1720811588,732:     16  80  80
1720811588,732:     42  80  80
1720811588,732:     71  80  80
1720811588,732:     67  80  80
1720811588,732:     38  80  80
1720811588,732:     22  80  80
1720811588,732:     40  80  80
1720811588,732:     67  80  80
1720811588,732:     63  80  80
1720811588,732:     28  80  80
1720811588,732:     -2  80  80
1720811588,732:      4  80  80
1720811588,764:     28  80  80
1720811588,764:     34  80  80
1720811588,764:     13  80  80
1720811588,764:     -5  80  80
1720811588,764:      7  80  80
1720811588,764:     40  80  80
1720811588,764:     55  80  80
1720811588,764:     36  80  80
1720811588,764:     10  80  80
1720811588,764:      6  80  80
1720811588,764:     21  80  80
1720811588,764:     29  80  80
1720811588,764:     21  80  80
1720811588,764:     19  80  80
1720811588,764:     40  80  80
1720811588,796:     68  80  80
1720811588,796:     70  80  80
1720811588,796:     45  80  80
1720811588,796:     28  80  80
1720811588,796:     47  80  80
1720811588,796:     82  80  80
1720811588,796:     92  80  80
1720811588,796:     70  80  80
1720811588,796:     51  80  80
1720811588,796:     68  80  80
1720811588,796:    105  80  80
1720811588,796:    118  80  80
1720811588,796:     90  80  80
1720811588,796:     60  80  80
1720811588,796:     69  80  80
1720811588,828:    112  80  80
1720811588,828:    139  80  80
1720811588,828:    123  80  80
1720811588,828:     88  80  80
1720811588,828:     81  80  80
1720811588,828:    111  80  80
1720811588,828:    138  80  80
1720811588,828:    123  80  80
1720811588,828:     79  80  80
1720811588,828:     49  80  80
1720811588,828:     58  80  80
1720811588,828:     85  80  80
1720811588,828:     93  80  80
1720811588,828:     79  80  80
1720811588,828:     70  80  80
1720811588,859:     85  80  80
1720811588,859:    105  80  80
1720811588,859:    103  80  80
1720811588,859:     77  80  80
1720811588,859:     54  80  80
1720811588,859:     52  80  80
1720811588,859:     63  80  80
1720811588,859:     60  80  80
1720811588,859:     40  80  80
1720811588,859:     24  80  80
1720811588,859:     30  80  80
1720811588,859:     47  80  80
1720811588,859:     49  80  80
1720811588,859:     27  80  80
1720811588,859:      2  80  80
1720811588,889:     -1  80  80
1720811588,889:     17  80  80
1720811588,889:     34  80  80
1720811588,889:     32  80  80
1720811588,889:     21  80  80
1720811588,889:     20  80  80
1720811588,889:     28  80  80
1720811588,889:     28  80  80
1720811588,889:     11  80  80
1720811588,889:     -8  80  80
1720811588,889:     -9  80  80
1720811588,889:      6  80  80
1720811588,889:     13  80  80
1720811588,889:      1  80  80
1720811588,889:    -10  80  80
1720811588,920:      3  80  80
1720811588,920:     33  80  80
1720811588,920:     42  80  80
1720811588,920:     15  80  80
1720811588,920:    -21  80  80
1720811588,920:    -29  80  80
1720811588,920:     -9  80  80
1720811588,920:      0  80  80
1720811588,920:    -24  80  80
1720811588,920:    -57  80  80
1720811588,920:    -55  80  80
1720811588,920:    -18  80  80
1720811588,920:     10  80  80
1720811588,920:     -8  80  80
1720811588,920:    -46  80  80
1720811588,920:    -58  80  80
1720811588,920:    -29  80  80
1720811588,920:      1  80  80
1720811588,920:     -1  80  80
1720811588,920:    -22  80  80
1720811588,920:    -23  80  80
1720811588,920:      4  80  80
1720811588,920:     22  80  80
1720811588,951:      2  80  80
1720811588,951:    -36  80  80
1720811588,951:    -47  80  80
1720811588,951:    -21  80  80
1720811588,951:      4  80  80
1720811588,951:     -7  80  80
1720811588,951:    -36  80  80
1720811588,983:    -37  80  80
1720811588,983:      3  80  80
1720811588,983:     43  80  80
1720811588,983:     41  80  80
1720811588,983:      6  80  80
1720811588,983:    -14  80  80
1720811588,983:      5  80  80
1720811588,983:     37  80  80
1720811588,983:     42  80  80
1720811588,983:     18  80  80
1720811588,983:      7  80  80
1720811588,983:     31  80  80
1720811588,983:     66  80  80
1720811588,983:     70  80  80
1720811588,983:     38  80  80
1720811589,015:     11  80  80
1720811589,015:     23  80  80
1720811589,015:     61  80  80
1720811589,015:     81  80  80
1720811589,015:     67  80  80
1720811589,015:     46  80  80
1720811589,015:     55  80  80
1720811589,015:     83  80  80
1720811589,015:     90  80  80
1720811589,015:     52  80  80
1720811589,015:      3  80  80
1720811589,015:     -7  80  80
1720811589,015:     31  80  80
1720811589,015:     74  80  80
1720811589,015:     85  80  80
1720811589,015:     70  80  80
1720811589,015:     67  80  80
1720811589,015:     94  80  80
1720811589,015:    123  80  80
1720811589,015:    122  80  80
1720811589,015:     97  80  80
1720811589,015:     78  80  80
1720811589,015:     79  80  80
1720811589,047:     87  80  80
1720811589,047:     84  80  80
1720811589,047:     80  80  80
1720811589,047:     99  80  80
1720811589,047:    139  80  80
1720811589,047:    172  80  80
1720811589,047:    174  80  80
1720811589,047:    159  80  80
1720811589,047:    154  80  80
1720811589,047:    166  80  80
1720811589,047:    175  80  80
1720811589,047:    158  80  80
1720811589,047:    127  80  80
1720811589,047:    113  80  80
1720811589,047:    124  80  80
1720811589,079:    139  80  80
1720811589,079:    137  80  80
1720811589,079:    127  80  80
1720811589,079:    140  80  80
1720811589,079:    183  80  80
1720811589,079:    230  80  80
1720811589,079:    248  80  80
1720811589,079:    240  80  80
1720811589,079:    241  80  80
1720811589,079:    266  80  80
1720811589,079:    293  80  80
1720811589,079:    282  80  80
1720811589,079:    231  80  80
1720811589,079:    180  80  80
1720811589,079:    166  80  80
1720811589,079:    178  80  80
1720811589,079:    177  80  80
1720811589,079:    152  80  80
1720811589,079:    131  80  80
1720811589,110:    138  80  80
1720811589,110:    155  80  80
1720811589,110:    138  80  80
1720811589,110:     78  80  80
1720811589,110:     12  80  80
1720811589,110:    -22  80  80
1720811589,110:    -31  80  80
1720811589,110:    -56  80  80
1720811589,110:   -109  80  80
1720811589,110:   -152  80  80
1720811589,110:   -151  80  80
1720811589,110:   -119  80  80
1720811589,110:   -105  80  80
1720811589,110:   -130  80  80
1720811589,110:   -160  80  80
1720811589,140:   -157  80  80
1720811589,140:   -128  80  80
1720811589,140:   -115  80  80
1720811589,140:   -138  80  80
1720811589,140:   -162  80  80
1720811589,140:   -149  80  80
1720811589,140:   -107  80  80
1720811589,140:    -82  80  80
1720811589,140:   -101  80  80
1720811589,140:   -136  80  80
1720811589,140:   -141  80  80
1720811589,140:   -110  80  80
1720811589,140:    -81  80  80
1720811589,140:    -83  80  80
1720811589,140:   -104  80  80
1720811589,170:   -111  80  80
1720811589,170:    -96  80  80
1720811589,170:    -85  80  80
1720811589,170:   -101  80  80
1720811589,170:   -126  80  80
1720811589,170:   -129  80  80
1720811589,170:   -104  80  80
1720811589,170:    -78  80  80
1720811589,170:    -78  80  80
1720811589,170:    -92  80  80
1720811589,170:    -82  80  80
1720811589,170:    -39  80  80
1720811589,170:     10  80  80
1720811589,170:     32  80  80
1720811589,170:     24  80  80
1720811589,200:      5  80  80
1720811589,200:    -11  80  80
1720811589,200:    -28  80  80
1720811589,200:    -56  80  80
1720811589,200:   -100  80  80
1720811589,200:   -167  80  80
1720811589,200:   -266  80  80
1720811589,200:   -386  80  80
1720811589,200:   -475  80  80
1720811589,200:   -455  80  80
1720811589,200:   -257  80  80
1720811589,200:    149  80  80
1720811589,200:    792  80  80
1720811589,200:   1721  80  80
1720811589,200:   2947  80  80
1720811589,230:   4353  80  80
1720811589,230:   5696  80  80
1720811589,230:   6760  80  80
1720811589,230:   7510  80  80
1720811589,230:   8062  80  80
1720811589,230:   8445  80  80
1720811589,230:   8442  80  80
1720811589,230:   7722  80  80
1720811589,230:   6215  80  80
1720811589,230:   4289  80  80
1720811589,230:   2523  80  80
1720811589,230:   1241  80  80
1720811589,230:    317  80  80
1720811589,230:   -567  80  80
1720811589,230:  -1505  80  80
1720811589,261:  -2244  78  79
1720811589,261:  -2473  78  79
1720811589,261:  -2174  78  79
1720811589,261:  -1639  78  79
1720811589,261:  -1205  78  79
1720811589,261:  -1004  78  79
1720811589,261:   -962  78  79
1720811589,261:   -968  78  79
1720811589,261:   -992  78  79
1720811589,261:  -1045  78  79
1720811589,261:  -1113  78  79
1720811589,261:  -1162  78  79
1720811589,261:  -1184  78  79
1720811589,261:  -1213  78  79
1720811589,261:  -1270  78  79
1720811589,293:  -1325  78  79
1720811589,293:  -1342  78  79
1720811589,293:  -1317  78  79
1720811589,293:  -1285  78  79
1720811589,293:  -1279  78  79
1720811589,293:  -1290  78  79
1720811589,293:  -1291  78  79
1720811589,293:  -1267  78  79
1720811589,293:  -1238  78  79
1720811589,293:  -1217  78  79
1720811589,293:  -1184  78  79
1720811589,293:  -1108  78  79
1720811589,293:   -998  78  79
1720811589,293:   -907  78  79
1720811589,293:   -882  78  79
1720811589,323:   -916  78  79
1720811589,323:   -954  78  79
1720811589,323:   -953  78  79
1720811589,323:   -919  78  79
1720811589,323:   -883  78  79
1720811589,323:   -857  78  79
1720811589,323:   -822  78  79
1720811589,323:   -770  78  79
1720811589,323:   -721  78  79
1720811589,323:   -703  78  79
1720811589,323:   -714  78  79
1720811589,323:   -719  78  79
1720811589,323:   -693  78  79
1720811589,323:   -649  78  79
1720811589,323:   -615  78  79
1720811589,353:   -601  78  79
1720811589,353:   -589  78  79
1720811589,353:   -560  78  79
1720811589,353:   -526  78  79
1720811589,353:   -512  78  79
1720811589,353:   -521  78  79
1720811589,353:   -527  78  79
1720811589,353:   -505  78  79
1720811589,353:   -464  78  79
1720811589,353:   -432  78  79
1720811589,353:   -422  78  79
1720811589,353:   -411  78  79
1720811589,353:   -378  78  79
1720811589,353:   -332  78  79
1720811589,353:   -311  78  79
1720811589,383:   -333  78  79
1720811589,383:   -369  78  79
1720811589,383:   -375  78  79
1720811589,383:   -344  78  79
1720811589,383:   -307  78  79
1720811589,383:   -293  78  79
1720811589,383:   -294  78  79
1720811589,383:   -280  78  79
1720811589,383:   -243  78  79
1720811589,383:   -213  78  79
1720811589,383:   -216  78  79
1720811589,383:   -235  78  79
1720811589,383:   -237  78  79
1720811589,383:   -214  78  79
1720811589,383:   -199  78  79
1720811589,413:   -217  78  79
1720811589,413:   -245  78  79
1720811589,413:   -238  78  79
1720811589,413:   -189  78  79
1720811589,413:   -144  78  79
1720811589,413:   -147  78  79
1720811589,413:   -187  78  79
1720811589,413:   -208  78  79
1720811589,413:   -183  78  79
1720811589,413:   -139  78  79
1720811589,413:   -129  78  79
1720811589,413:   -159  78  79
1720811589,413:   -192  78  79
1720811589,413:   -196  78  79
1720811589,413:   -185  78  79
1720811589,443:   -195  78  79
1720811589,443:   -230  78  79
1720811589,443:   -257  78  79
1720811589,443:   -253  78  79
1720811589,443:   -236  78  79
1720811589,443:   -237  78  79
1720811589,443:   -261  78  79
1720811589,443:   -277  78  79
1720811589,443:   -259  78  79
1720811589,443:   -227  78  79
1720811589,443:   -220  78  79
1720811589,443:   -247  78  79
1720811589,443:   -271  78  79
1720811589,443:   -257  78  79
1720811589,443:   -215  78  79
1720811589,475:   -187  78  79
1720811589,475:   -189  78  79
1720811589,475:   -195  78  79
1720811589,475:   -167  78  79
1720811589,475:   -110  78  79
1720811589,475:    -70  78  79
1720811589,475:    -73  78  79
1720811589,475:    -96  78  79
1720811589,475:    -96  78  79
1720811589,475:    -59  78  79
1720811589,475:    -23  78  79
1720811589,475:    -19  78  79
1720811589,475:    -36  78  79
1720811589,475:    -33  78  79
1720811589,475:      1  78  79
1720811589,475:     37  78  79
1720811589,475:     43  78  79
1720811589,475:     27  78  79
1720811589,475:     27  78  79
1720811589,475:     57  78  79
1720811589,475:     90  78  79
1720811589,475:     95  78  79
1720811589,475:     74  78  79
1720811589,507:     60  78  79
1720811589,507:     69  78  79
1720811589,507:     82  78  79
1720811589,507:     71  78  79
1720811589,507:     41  78  79
1720811589,507:     21  78  79
1720811589,507:     28  78  79
1720811589,507:     41  78  79
1720811589,507:     37  78  79
1720811589,507:     20  78  79
1720811589,507:     19  78  79
1720811589,507:     45  78  79
1720811589,507:     73  78  79
1720811589,507:     66  78  79
1720811589,507:     28  78  79
1720811589,539:      1  78  79
1720811589,539:     11  78  79
1720811589,539:     42  78  79
1720811589,539:     56  78  79
1720811589,539:     41  78  79
1720811589,539:     27  78  79
1720811589,539:     39  78  79
1720811589,539:     66  78  79
1720811589,539:     74  78  79
1720811589,539:     54  78  79
1720811589,539:     34  78  79
1720811589,539:     40  78  79
1720811589,539:     58  78  79
1720811589,539:     54  78  79
1720811589,539:     24  78  79
1720811589,571:      7  78  79
1720811589,571:     32  78  79
1720811589,571:     79  78  79
1720811589,571:    100  78  79
1720811589,571:     77  78  79
1720811589,571:     45  78  79
1720811589,571:     49  78  79
1720811589,571:     88  78  79
1720811589,571:    118  78  79
1720811589,571:    109  78  79
1720811589,571:     78  78  79
1720811589,571:     65  78  79
1720811589,571:     80  78  79
1720811589,571:     91  78  79
1720811589,571:     70  78  79
1720811589,603:     30  78  79
1720811589,603:      9  78  79
1720811589,603:     23  78  79
1720811589,603:     45  78  79
1720811589,603:     45  78  79
1720811589,603:     29  78  79
1720811589,603:     27  78  79
1720811589,603:     50  78  79
1720811589,603:     73  78  79
1720811589,603:     65  78  79
1720811589,603:     33  78  79
1720811589,603:     12  78  79
1720811589,603:     17  78  79
1720811589,603:     28  78  79
1720811589,603:     17  78  79
1720811589,633:     -9  78  79
1720811589,633:    -18  78  79
1720811589,633:      2  78  79
1720811589,633:     29  78  79
1720811589,633:     31  78  79
1720811589,633:     12  78  79
1720811589,633:      3  78  79
1720811589,633:     21  78  79
1720811589,633:     45  78  79
1720811589,633:     47  78  79
1720811589,633:     30  78  79
1720811589,633:     24  78  79
1720811589,633:     42  78  79
1720811589,633:     61  78  79
1720811589,633:     47  78  79
1720811589,663:      9  78  79
1720811589,663:    -13  78  79
1720811589,663:      7  78  79
1720811589,663:     44  78  79
1720811589,663:     56  78  79
1720811589,663:     35  78  79
1720811589,663:     16  78  79
1720811589,663:     31  78  79
1720811589,663:     65  78  79
1720811589,663:     76  78  79
1720811589,663:     51  78  79
1720811589,663:     20  78  79
1720811589,663:     18  78  79
1720811589,663:     37  78  79
1720811589,663:     43  78  79
1720811589,694:     22  78  79
1720811589,694:      2  78  79
1720811589,694:      8  78  79
1720811589,694:     31  78  79
1720811589,694:     35  78  79
1720811589,694:      4  78  79
1720811589,694:    -34  78  79
1720811589,694:    -42  78  79
1720811589,694:    -19  78  79
1720811589,694:      6  78  79
1720811589,694:     13  78  79
1720811589,694:      9  78  79
1720811589,694:     14  78  79
1720811589,694:     30  78  79
1720811589,694:     39  78  79
1720811589,726:     31  78  79
1720811589,726:     16  78  79
1720811589,726:     12  78  79
1720811589,726:     16  78  79
1720811589,726:     14  78  79
1720811589,726:      0  78  79
1720811589,726:    -13  78  79
1720811589,726:     -4  78  79
1720811589,726:     20  78  79
1720811589,726:     33  78  79
1720811589,726:     16  78  79
1720811589,726:    -16  78  79
1720811589,726:    -29  78  79
1720811589,726:    -11  78  79
1720811589,726:     15  78  79
1720811589,726:     23  78  79
1720811589,726:     14  78  79
1720811589,726:     13  78  79
1720811589,726:     30  78  79
1720811589,726:     49  78  79
1720811589,726:     43  78  79
1720811589,726:     17  78  79
1720811589,756:     -1  78  79
1720811589,756:      5  78  79
1720811589,756:     18  78  79
1720811589,756:     13  78  79
1720811589,756:     -4  78  79
1720811589,756:     -6  78  79
1720811589,756:     15  78  79
1720811589,756:     33  78  79
1720811589,786:     20  78  79
1720811589,786:    -14  78  79
1720811589,786:    -31  78  79
1720811589,786:    -16  78  79
1720811589,786:      4  78  79
1720811589,786:     -4  78  79
1720811589,786:    -33  78  79
1720811589,786:    -43  78  79
1720811589,786:    -15  78  79
1720811589,786:     20  78  79
1720811589,786:     21  78  79
1720811589,786:    -12  78  79
1720811589,786:    -34  78  79
1720811589,786:    -19  78  79
1720811589,786:     13  78  79
1720811589,816:     18  78  79
1720811589,816:    -10  78  79
1720811589,816:    -36  78  79
1720811589,816:    -25  78  79
1720811589,816:      7  78  79
1720811589,816:     21  78  79
1720811589,816:      0  78  79
1720811589,816:    -26  78  79
1720811589,816:    -25  78  79
1720811589,816:      2  78  79
1720811589,816:     25  78  79
1720811589,816:     27  78  79
1720811589,816:     22  78  79
1720811589,816:     31  78  79
1720811589,816:     48  78  79
1720811589,816:     51  78  79
1720811589,816:     30  78  79
1720811589,816:     10  78  79
1720811589,816:     14  78  79
1720811589,816:     33  78  79
1720811589,816:     35  78  79
1720811589,816:      9  78  79
1720811589,846:    -12  78  79
1720811589,846:     10  78  79
1720811589,846:     71  78  79
1720811589,846:    126  78  79
1720811589,846:    141  78  79
1720811589,846:    129  78  79
1720811589,846:    133  78  79
1720811589,846:    171  78  79
1720811589,846:    217  78  79
1720811589,846:    233  78  79
1720811589,846:    214  78  79
1720811589,846:    191  78  79
1720811589,846:    183  78  79
1720811589,846:    179  78  79
1720811589,846:    155  78  79
1720811589,876:    113  78  79
1720811589,876:     81  78  79
1720811589,876:     76  78  79
1720811589,876:     82  78  79
1720811589,876:     72  78  79
1720811589,876:     40  78  79
1720811589,876:      9  78  79
1720811589,876:     -1  78  79
1720811589,876:      0  78  79
1720811589,876:    -14  78  79
1720811589,876:    -49  78  79
1720811589,876:    -85  78  79
1720811589,876:    -98  78  79
1720811589,876:    -89  78  79
1720811589,876:    -78  78  79
1720811589,908:    -76  78  79
1720811589,908:    -71  78  79
1720811589,908:    -54  78  79
1720811589,908:    -34  78  79
1720811589,908:    -28  78  79
1720811589,908:    -43  78  79
1720811589,908:    -57  78  79
1720811589,908:    -54  78  79
1720811589,908:    -41  78  79
1720811589,908:    -38  78  79
1720811589,908:    -49  78  79
1720811589,908:    -56  78  79
1720811589,908:    -41  78  79
1720811589,908:    -17  78  79
1720811589,908:     -9  78  79
1720811589,940:    -30  78  79
1720811589,940:    -58  78  79
1720811589,940:    -63  78  79
1720811589,940:    -45  78  79
1720811589,940:    -31  78  79
1720811589,940:    -36  78  79
1720811589,940:    -46  78  79
1720811589,940:    -38  78  79
1720811589,940:    -10  78  79
1720811589,940:     10  78  79
1720811589,940:      1  78  79
1720811589,940:    -20  78  79
1720811589,940:    -22  78  79
1720811589,940:      6  78  79
1720811589,940:     42  78  79
1720811589,972:     58  78  79
1720811589,972:     64  78  79
1720811589,972:     85  78  79
1720811589,972:    111  78  79
1720811589,972:    104  78  79
1720811589,972:     44  78  79
1720811589,972:    -29  78  79
1720811589,972:    -71  78  79
1720811589,972:    -96  78  79
1720811589,972:   -168  78  79
1720811589,972:   -314  78  79
1720811589,972:   -459  78  79
1720811589,972:   -475  78  79
1720811589,972:   -296  78  79
1720811589,972:     56  78  79
1720811590,004:    571  78  79
1720811590,004:   1331  78  79
1720811590,004:   2433  78  79
1720811590,004:   3814  78  79
1720811590,004:   5205  78  79
1720811590,004:   6327  78  79
1720811590,004:   7118  78  79
1720811590,004:   7725  78  79
1720811590,004:   8232  78  79
1720811590,004:   8429  78  79
1720811590,004:   7944  78  79
1720811590,004:   6628  78  79
1720811590,004:   4799  78  79
1720811590,004:   3028  78  79
1720811590,004:   1684  78  79
1720811590,036:    706  78  79
1720811590,036:   -189  78  79
1720811590,036:  -1117  78  79
1720811590,036:  -1892  78  79
1720811590,036:  -2239  78  79
1720811590,036:  -2097  78  79
1720811590,036:  -1669  78  79
1720811590,036:  -1235  78  79
1720811590,036:   -965  78  79
1720811590,036:   -879  78  79
1720811590,036:   -910  78  79
1720811590,036:   -985  78  79
1720811590,036:  -1043  78  79
1720811590,036:  -1062  78  79
1720811590,036:  -1061  78  79
1720811590,036:  -1089  78  79
1720811590,036:  -1167  78  79
1720811590,036:  -1259  78  79
1720811590,036:  -1309  78  79
1720811590,036:  -1306  78  79
1720811590,036:  -1282  78  79
1720811590,036:  -1270  78  79
1720811590,036:  -1266  78  79
1720811590,068:  -1252  78  79
1720811590,068:  -1229  78  79
1720811590,068:  -1216  78  79
1720811590,068:  -1219  78  79
1720811590,068:  -1213  78  79
1720811590,068:  -1168  78  79
1720811590,068:  -1086  78  79
1720811590,068:  -1004  78  79
1720811590,068:   -955  78  79
1720811590,068:   -939  78  79
1720811590,068:   -929  78  79
1720811590,068:   -914  78  79
1720811590,068:   -905  78  79
1720811590,068:   -913  78  79
1720811590,068:   -919  78  79
1720811590,100:   -893  78  79
1720811590,100:   -829  78  79
1720811590,100:   -759  78  79
1720811590,100:   -722  78  79
1720811590,100:   -721  78  79
1720811590,100:   -720  78  79
1720811590,100:   -694  78  79
1720811590,100:   -658  78  79
1720811590,100:   -643  78  79
1720811590,100:   -652  78  79
1720811590,100:   -650  78  79
1720811590,100:   -614  78  79
1720811590,131:   -563  78  79
1720811590,131:   -532  78  79
1720811590,131:   -529  78  79
1720811590,131:   -527  78  79
1720811590,131:   -501  78  79
1720811590,131:   -462  78  79
1720811590,131:   -443  78  79
1720811590,131:   -448  78  79
1720811590,131:   -448  78  79
1720811590,131:   -421  78  79
1720811590,131:   -383  78  79
1720811590,131:   -365  78  79
1720811590,131:   -373  78  79
1720811590,131:   -377  78  79
1720811590,131:   -352  78  79
1720811590,163:   -313  78  79
1720811590,163:   -294  78  79
1720811590,163:   -303  78  79
1720811590,163:   -313  78  79
1720811590,163:   -296  78  79
1720811590,163:   -257  78  79
1720811590,163:   -227  78  79
1720811590,163:   -220  78  79
1720811590,163:   -218  78  79
1720811590,163:   -196  78  79
1720811590,163:   -161  78  79
1720811590,163:   -143  78  79
1720811590,163:   -159  78  79
1720811590,163:   -185  78  79
1720811590,163:   -189  78  79
1720811590,163:   -165  78  79
1720811590,163:   -142  78  79
1720811590,163:   -145  78  79
1720811590,163:   -159  78  79
1720811590,163:   -153  78  79
1720811590,163:   -122  78  79
1720811590,163:    -95  78  79
1720811590,163:   -101  78  79
1720811590,194:   -126  78  79
1720811590,194:   -136  78  79
1720811590,194:   -122  78  79
1720811590,194:   -113  78  79
1720811590,194:   -134  78  79
1720811590,194:   -171  78  79
1720811590,194:   -186  78  79
1720811590,224:   -169  78  79
1720811590,224:   -152  78  79
1720811590,224:   -171  78  79
1720811590,224:   -214  78  79
1720811590,224:   -239  78  79
1720811590,224:   -227  78  79
1720811590,224:   -203  78  79
1720811590,224:   -204  78  79
1720811590,224:   -229  78  79
1720811590,224:   -242  78  79
1720811590,224:   -219  78  79
1720811590,224:   -184  78  79
1720811590,224:   -176  78  79
1720811590,224:   -201  78  79
1720811590,224:   -223  78  79
1720811590,255:   -210  78  79
1720811590,255:   -172  78  79
1720811590,255:   -144  78  79
1720811590,255:   -139  78  79
1720811590,255:   -134  78  79
1720811590,255:   -104  78  79
1720811590,255:    -62  78  79
1720811590,255:    -39  78  79
1720811590,255:    -49  78  79
1720811590,255:    -63  78  79
1720811590,255:    -48  78  79
1720811590,255:     -9  78  79
1720811590,255:     21  78  79
1720811590,255:     20  78  79
1720811590,255:      4  78  79
1720811590,255:      3  78  79
1720811590,255:     22  78  79
1720811590,255:     40  78  79
1720811590,255:     38  78  79
1720811590,255:     29  78  79
1720811590,255:     30  78  79
1720811590,255:     40  78  79
1720811590,255:     44  78  79
1720811590,287:     36  78  79
1720811590,287:     34  78  79
1720811590,287:     53  78  79
1720811590,287:     81  78  79
1720811590,287:     86  78  79
1720811590,287:     60  78  79
1720811590,287:     29  78  79
1720811590,287:     24  78  79
1720811590,287:     43  78  79
1720811590,287:     54  78  79
1720811590,287:     38  78  79
1720811590,287:     15  78  79
1720811590,287:     15  78  79
1720811590,287:     39  78  79
1720811590,287:     54  78  79
1720811590,317:     35  78  79
1720811590,317:     -1  78  79
1720811590,317:    -18  78  79
1720811590,317:     -5  78  79
1720811590,317:     14  78  79
1720811590,317:     13  78  79
1720811590,317:     -1  78  79
1720811590,317:      1  78  79
1720811590,317:     26  78  79
1720811590,317:     50  78  79
1720811590,317:     47  78  79
1720811590,317:     25  78  79
1720811590,317:     15  78  79
1720811590,317:     33  78  79
1720811590,317:     58  78  79
1720811590,347:     62  78  79
1720811590,347:     45  78  79
1720811590,347:     34  78  79
1720811590,347:     53  78  79
1720811590,347:     84  78  79
1720811590,347:     97  78  79
1720811590,347:     81  78  79
1720811590,347:     58  78  79
1720811590,347:     58  78  79
1720811590,347:     79  78  79
1720811590,347:     97  78  79
1720811590,347:    100  78  79
1720811590,347:    101  78  79
1720811590,347:    117  78  79
1720811590,347:    142  78  79
1720811590,377:    148  78  79
1720811590,377:    124  78  79
1720811590,377:     96  78  79
1720811590,377:     93  78  79
1720811590,377:    113  78  79
1720811590,377:    126  78  79
1720811590,377:    111  78  79
1720811590,377:     87  78  79
1720811590,377:     88  78  79
1720811590,377:    114  78  79
1720811590,377:    130  78  79
1720811590,377:    110  78  79
1720811590,377:     72  78  79
1720811590,377:     59  78  79
1720811590,377:     80  78  79
1720811590,407:    102  78  79
1720811590,407:     96  78  79
1720811590,407:     70  78  79
1720811590,407:     63  78  79
1720811590,407:     86  78  79
1720811590,407:    107  78  79
1720811590,407:     91  78  79
1720811590,407:     48  78  79
1720811590,407:     21  78  79
1720811590,407:     29  78  79
1720811590,407:     50  78  79
1720811590,407:     51  78  79
1720811590,407:     34  78  79
1720811590,407:     28  78  79
1720811590,407:     45  78  79
1720811590,437:     65  78  79
1720811590,437:     56  78  79
1720811590,437:     28  78  79
1720811590,437:     14  78  79
1720811590,437:     30  78  79
1720811590,437:     50  78  79
1720811590,437:     44  78  79
1720811590,437:     16  78  79
1720811590,437:      3  78  79
1720811590,437:     25  78  79
1720811590,437:     55  78  79
1720811590,437:     56  78  79
1720811590,437:     27  78  79
1720811590,437:      9  78  79
1720811590,437:     28  78  79
1720811590,469:     62  78  79
1720811590,469:     69  78  79
1720811590,469:     40  78  79
1720811590,469:     17  78  79
1720811590,469:     33  78  79
1720811590,469:     69  78  79
1720811590,469:     74  78  79
1720811590,469:     34  78  79
1720811590,469:    -11  78  79
1720811590,469:    -14  78  79
1720811590,469:     20  78  79
1720811590,469:     42  78  79
1720811590,469:     21  78  79
1720811590,469:    -15  78  79
1720811590,469:    -18  78  79
1720811590,501:     16  78  79
1720811590,501:     45  78  79
1720811590,501:     36  78  79
1720811590,501:      4  78  79
1720811590,501:     -9  78  79
1720811590,501:     11  78  79
1720811590,501:     34  78  79
1720811590,501:     29  78  79
1720811590,501:      5  78  79
1720811590,501:     -3  78  79
1720811590,501:     16  78  79
1720811590,501:     36  78  79
1720811590,501:     33  78  79
1720811590,501:     15  78  79
1720811590,501:     14  78  79
1720811590,501:     36  78  79
1720811590,501:     54  78  79
1720811590,501:     47  78  79
1720811590,501:     26  78  79
1720811590,501:     25  78  79
1720811590,501:     48  78  79
1720811590,501:     66  78  79
1720811590,533:     50  78  79
1720811590,533:     15  78  79
1720811590,533:     -1  78  79
1720811590,533:     16  78  79
1720811590,533:     38  78  79
1720811590,533:     35  78  79
1720811590,533:     15  78  79
1720811590,533:     11  78  79
1720811590,533:     33  78  79
1720811590,533:     49  78  79
1720811590,533:     27  78  79
1720811590,533:    -22  78  79
1720811590,533:    -52  78  79
1720811590,533:    -39  78  79
1720811590,533:    -10  78  79
1720811590,565:    -10  78  79
1720811590,565:    -42  78  79
1720811590,565:    -66  78  79
1720811590,565:    -48  78  79
1720811590,565:     -7  78  79
1720811590,565:     10  78  79
1720811590,565:    -17  78  79
1720811590,565:    -53  78  79
1720811590,565:    -55  78  79
1720811590,565:    -21  78  79
1720811590,565:     10  78  79
1720811590,565:     13  78  79
1720811590,565:      7  78  79
1720811590,565:     27  78  79
1720811590,565:     70  78  79
1720811590,596:     97  78  79
1720811590,596:     81  78  79
1720811590,596:     44  78  79
1720811590,596:     31  78  79
1720811590,596:     52  78  79
1720811590,596:     72  78  79
1720811590,596:     59  78  79
1720811590,596:     26  78  79
1720811590,596:     14  78  79
1720811590,596:     40  78  79
1720811590,596:     75  78  79
1720811590,596:     91  78  79
1720811590,596:     94  78  79
1720811590,596:    117  78  79
1720811590,596:    164  78  79
1720811590,596:    209  78  79
1720811590,596:    223  78  79
1720811590,596:    221  78  79
1720811590,596:    233  78  79
1720811590,596:    261  78  79
1720811590,596:    270  78  79
1720811590,596:    231  78  79
1720811590,596:    172  78  79
1720811590,628:    146  78  79
1720811590,628:    166  78  79
1720811590,628:    190  78  79
1720811590,628:    175  78  79
1720811590,628:    134  78  79
1720811590,628:    114  78  79
1720811590,628:    133  78  79
1720811590,660:    154  78  79
1720811590,660:    130  78  79
1720811590,660:     66  78  79
1720811590,660:     13  78  79
1720811590,660:     -2  78  79
1720811590,660:     -2  78  79
1720811590,660:    -28  78  79
1720811590,660:    -79  78  79
1720811590,660:   -114  78  79
1720811590,660:   -104  78  79
1720811590,660:    -73  78  79
1720811590,660:    -64  78  79
1720811590,660:    -90  78  79
1720811590,660:   -118  78  79
1720811590,660:   -114  78  79
1720811590,705:    -84  78  79
1720811590,705:    -62  78  79
1720811590,705:    -66  78  79
1720811590,705:    -79  78  79
1720811590,705:    -79  78  79
1720811590,705:    -66  78  79
1720811590,705:    -64  78  79
1720811590,705:    -82  78  79
1720811590,705:   -103  78  79
1720811590,705:   -103  78  79
1720811590,705:    -80  78  79
1720811590,705:    -55  78  79
1720811590,705:    -48  78  79
1720811590,705:    -55  78  79
1720811590,705:    -56  78  79
1720811590,705:    -45  78  79
1720811590,705:    -34  78  79
1720811590,705:    -37  78  79
1720811590,705:    -50  78  79
1720811590,705:    -56  78  79
1720811590,705:    -48  78  79
1720811590,705:    -34  78  79
1720811590,705:    -28  78  79
1720811590,736:    -25  78  79
1720811590,736:     -7  78  79
1720811590,736:     33  78  79
1720811590,736:     75  78  79
1720811590,736:     88  78  79
1720811590,736:     64  78  79
1720811590,736:     18  78  79
1720811590,736:    -23  78  79
1720811590,736:    -46  78  79
1720811590,736:    -61  78  79
1720811590,736:    -92  78  79
1720811590,736:   -150  78  79
1720811590,736:   -220  78  79
1720811590,736:   -275  78  79
1720811590,736:   -270  78  79
1720811590,768:   -156  78  79
1720811590,768:    100  78  79
1720811590,768:    522  78  79
1720811590,768:   1162  78  79
1720811590,768:   2072  78  79
1720811590,768:   3224  78  79
1720811590,768:   4435  78  79
1720811590,768:   5451  78  79
1720811590,768:   6144  78  79
1720811590,768:   6607  78  79
1720811590,768:   6995  78  79
1720811590,768:   7241  78  79
1720811590,768:   7007  78  79
1720811590,768:   6003  78  79
1720811590,768:   4357  78  79
1720811590,768:   2600  78  79
1720811590,768:   1234  78  79
1720811590,768:    333  78  79
1720811590,768:   -400  78  79
1720811590,768:  -1213  78  79
1720811590,768:  -2007  78  79
1720811590,768:  -2464  78  79
1720811590,800:  -2411  79  79
1720811590,800:  -1995  79  79
1720811590,800:  -1525  79  79
1720811590,800:  -1208  79  79
1720811590,800:  -1059  79  79
1720811590,800:   -999  79  79
1720811590,800:   -977  79  79
1720811590,800:   -985  79  79
1720811590,800:  -1004  79  79
1720811590,800:   -999  79  79
1720811590,800:   -954  79  79
1720811590,800:   -905  79  79
1720811590,800:   -898  79  79
1720811590,800:   -934  79  79
1720811590,800:   -968  79  79
1720811590,830:   -961  79  79
1720811590,830:   -925  79  79
1720811590,830:   -902  79  79
1720811590,830:   -922  79  79
1720811590,830:   -968  79  79
1720811590,830:   -998  79  79
1720811590,830:   -994  79  79
1720811590,830:   -969  79  79
1720811590,830:   -934  79  79
1720811590,830:   -879  79  79
1720811590,830:   -792  79  79
1720811590,830:   -695  79  79
1720811590,830:   -634  79  79
1720811590,830:   -634  79  79
1720811590,830:   -670  79  79
1720811590,860:   -694  79  79
1720811590,860:   -682  79  79
1720811590,860:   -653  79  79
1720811590,860:   -631  79  79
1720811590,860:   -614  79  79
1720811590,860:   -576  79  79
1720811590,860:   -516  79  79
1720811590,860:   -464  79  79
1720811590,890:   -457  79  79
1720811590,890:   -490  79  79
1720811590,890:   -520  79  79
1720811590,890:   -516  79  79
1720811590,890:   -485  79  79
1720811590,890:   -461  79  79
1720811590,890:   -453  79  79
1720811590,890:   -439  79  79
1720811590,890:   -400  79  79
1720811590,890:   -349  79  79
1720811590,890:   -322  79  79
1720811590,890:   -326  79  79
1720811590,890:   -331  79  79
1720811590,890:   -309  79  79
1720811590,890:   -267  79  79
1720811590,890:   -235  79  79
1720811590,890:   -226  79  79
1720811590,890:   -221  79  79
1720811590,890:   -199  79  79
1720811590,890:   -168  79  79
1720811590,890:   -159  79  79
1720811590,890:   -177  79  79
1720811590,920:   -190  79  79
1720811590,920:   -172  79  79
1720811590,920:   -132  79  79
1720811590,920:   -103  79  79
1720811590,920:   -103  79  79
1720811590,920:   -104  79  79
1720811590,920:    -77  79  79
1720811590,920:    -30  79  79
1720811590,920:     -1  79  79
1720811590,920:     -9  79  79
1720811590,920:    -31  79  79
1720811590,920:    -35  79  79
1720811590,920:    -15  79  79
1720811590,920:      2  79  79
1720811590,920:     -3  79  79
1720811590,950:    -17  79  79
1720811590,950:    -16  79  79
1720811590,950:     -2  79  79
1720811590,950:      3  79  79
1720811590,950:    -12  79  79
1720811590,950:    -30  79  79
1720811590,950:    -30  79  79
1720811590,950:    -13  79  79
1720811590,950:     -4  79  79
1720811590,950:    -16  79  79
1720811590,950:    -32  79  79
1720811590,950:    -32  79  79
1720811590,950:    -18  79  79
1720811590,950:    -21  79  79
1720811590,950:    -53  79  79
1720811590,982:    -94  79  79
1720811590,982:   -109  79  79
1720811590,982:    -96  79  79
1720811590,982:    -83  79  79
1720811590,982:    -98  79  79
1720811590,982:   -127  79  79
1720811590,982:   -137  79  79
1720811590,982:   -118  79  79
1720811590,982:    -97  79  79
1720811590,982:   -108  79  79
1720811590,982:   -145  79  79
1720811590,982:   -167  79  79
1720811590,982:   -154  79  79
1720811590,982:   -126  79  79
1720811590,982:   -120  79  79
1720811591,013:   -138  79  79
1720811591,013:   -144  79  79
1720811591,013:   -115  79  79
1720811591,013:    -73  79  79
1720811591,013:    -56  79  79
1720811591,013:    -74  79  79
1720811591,013:    -91  79  79
1720811591,013:    -73  79  79
1720811591,013:    -35  79  79
1720811591,013:    -15  79  79
1720811591,013:    -23  79  79
1720811591,013:    -29  79  79
1720811591,013:     -3  79  79
1720811591,013:     39  79  79
1720811591,013:     54  79  79
1720811591,045:     27  79  79
1720811591,045:     -5  79  79
1720811591,045:     -7  79  79
1720811591,045:     16  79  79
1720811591,045:     22  79  79
1720811591,045:     -5  79  79
1720811591,045:    -34  79  79
1720811591,045:    -28  79  79
1720811591,045:      7  79  79
1720811591,045:     27  79  79
1720811591,045:      8  79  79
1720811591,045:    -24  79  79
1720811591,045:    -30  79  79
1720811591,045:     -9  79  79
1720811591,045:      6  79  79
1720811591,077:     -9  79  79
1720811591,077:    -38  79  79
1720811591,077:    -47  79  79
1720811591,077:    -31  79  79
1720811591,077:    -19  79  79
1720811591,077:    -32  79  79
1720811591,077:    -58  79  79
1720811591,077:    -66  79  79
1720811591,077:    -48  79  79
1720811591,077:    -28  79  79
1720811591,077:    -30  79  79
1720811591,077:    -42  79  79
1720811591,077:    -37  79  79
1720811591,077:    -11  79  79
1720811591,077:      3  79  79
1720811591,077:    -20  79  79
1720811591,077:    -64  79  79
1720811591,077:    -80  79  79
1720811591,077:    -53  79  79
1720811591,077:    -16  79  79
1720811591,077:    -12  79  79
1720811591,077:    -40  79  79
1720811591,109:    -53  79  79
1720811591,109:    -24  79  79
1720811591,109:     16  79  79
1720811591,109:     20  79  79
1720811591,109:    -15  79  79
1720811591,109:    -45  79  79
1720811591,109:    -38  79  79
1720811591,109:     -8  79  79
1720811591,109:      3  79  79
1720811591,109:    -12  79  79
1720811591,109:    -20  79  79
1720811591,109:      1  79  79
1720811591,109:     30  79  79
1720811591,141:     29  79  79
1720811591,141:      0  79  79
1720811591,141:    -16  79  79
1720811591,141:      6  79  79
1720811591,141:     43  79  79
1720811591,141:     54  79  79
1720811591,141:     32  79  79
1720811591,141:     14  79  79
1720811591,141:     32  79  79
1720811591,141:     68  79  79
1720811591,141:     77  79  79
1720811591,141:     43  79  79
1720811591,141:      1  79  79
1720811591,141:     -5  79  79
1720811591,141:     24  79  79
1720811591,173:     47  79  79
1720811591,173:     36  79  79
1720811591,173:     15  79  79
1720811591,173:     22  79  79
1720811591,173:     63  79  79
1720811591,173:     99  79  79
1720811591,173:     94  79  79
1720811591,173:     62  79  79
1720811591,173:     47  79  79
1720811591,173:     64  79  79
1720811591,173:     87  79  79
1720811591,173:     81  79  79
1720811591,173:     54  79  79
1720811591,173:     39  79  79
1720811591,173:     50  79  79
1720811591,173:     61  79  79
1720811591,173:     44  79  79
1720811591,173:     13  79  79
1720811591,173:      3  79  79
1720811591,173:     19  79  79
1720811591,173:     32  79  79
1720811591,173:     16  79  79
1720811591,205:    -13  79  79
1720811591,205:    -17  79  79
1720811591,205:      9  79  79
1720811591,205:     30  79  79
1720811591,205:     11  79  79
1720811591,205:    -28  79  79
1720811591,205:    -45  79  79
1720811591,205:    -22  79  79
1720811591,205:      6  79  79
1720811591,205:      1  79  79
1720811591,205:    -28  79  79
1720811591,205:    -40  79  79
1720811591,205:    -16  79  79
1720811591,205:     11  79  79
1720811591,205:      3  79  79
1720811591,237:    -39  79  79
1720811591,237:    -70  79  79
1720811591,237:    -62  79  79
1720811591,237:    -30  79  79
1720811591,237:    -16  79  79
1720811591,237:    -30  79  79
1720811591,237:    -43  79  79
1720811591,237:    -28  79  79
1720811591,237:      2  79  79
1720811591,237:     11  79  79
1720811591,237:     -8  79  79
1720811591,237:    -27  79  79
1720811591,237:    -17  79  79
1720811591,237:     11  79  79
1720811591,237:     21  79  79
1720811591,269:      2  79  79
1720811591,269:    -17  79  79
1720811591,269:     -4  79  79
1720811591,269:     31  79  79
1720811591,269:     46  79  79
1720811591,269:     21  79  79
1720811591,269:    -15  79  79
1720811591,269:    -20  79  79
1720811591,269:      6  79  79
1720811591,269:     25  79  79
1720811591,269:      7  79  79
1720811591,269:    -25  79  79
1720811591,269:    -27  79  79
1720811591,269:      8  79  79
1720811591,269:     39  79  79
1720811591,301:     31  79  79
1720811591,301:     -1  79  79
1720811591,301:    -12  79  79
1720811591,301:     13  79  79
1720811591,301:     41  79  79
1720811591,301:     41  79  79
1720811591,301:     23  79  79
1720811591,301:     26  79  79
1720811591,301:     55  79  79
1720811591,301:     73  79  79
1720811591,301:     48  79  79
1720811591,301:      4  79  79
1720811591,301:     -8  79  79
1720811591,301:     26  79  79
1720811591,301:     66  79  79
1720811591,336:     72  79  79
1720811591,336:     57  79  79
1720811591,336:     66  79  79
1720811591,336:    113  79  79
1720811591,336:    161  79  79
1720811591,336:    167  79  79
1720811591,336:    140  79  79
1720811591,336:    126  79  79
1720811591,336:    142  79  79
1720811591,336:    157  79  79
1720811591,336:    137  79  79
1720811591,336:     92  79  79
1720811591,336:     70  79  79
1720811591,336:     91  79  79
1720811591,336:    123  79  79
1720811591,365:    122  79  79
1720811591,365:     92  79  79
1720811591,365:     77  79  79
1720811591,365:    107  79  79
1720811591,365:    163  79  79
1720811591,365:    202  79  79
1720811591,365:    210  79  79
1720811591,365:    216  79  79
1720811591,365:    244  79  79
1720811591,365:    282  79  79
1720811591,365:    296  79  79
1720811591,365:    275  79  79
1720811591,365:    245  79  79
1720811591,365:    231  79  79
1720811591,365:    230  79  79
1720811591,413:    220  79  79
1720811591,413:    192  79  79
1720811591,413:    166  79  79
1720811591,413:    155  79  79
1720811591,413:    151  79  79
1720811591,413:    129  79  79
1720811591,413:     83  79  79
1720811591,413:     35  79  79
1720811591,413:     10  79  79
1720811591,413:      5  79  79
1720811591,413:     -5  79  79
1720811591,413:    -34  79  79
1720811591,413:    -65  79  79
1720811591,413:    -73  79  79
1720811591,413:    -57  79  79
1720811591,413:    -44  79  79
1720811591,413:    -52  79  79
1720811591,413:    -71  79  79
1720811591,413:    -74  79  79
1720811591,413:    -55  79  79
1720811591,413:    -40  79  79
1720811591,413:    -48  79  79
1720811591,413:    -65  79  79
1720811591,448:    -61  79  79
1720811591,448:    -30  79  79
1720811591,448:     -6  79  79
1720811591,448:    -17  79  79
1720811591,448:    -52  79  79
1720811591,448:    -66  79  79
1720811591,448:    -42  79  79
1720811591,448:    -10  79  79
1720811591,448:     -6  79  79
1720811591,448:    -26  79  79
1720811591,448:    -34  79  79
1720811591,448:     -8  79  79
1720811591,448:     25  79  79
1720811591,448:     28  79  79
1720811591,448:      3  79  79
1720811591,478:    -16  79  79
1720811591,478:     -5  79  79
1720811591,478:     20  79  79
1720811591,478:     27  79  79
1720811591,478:     12  79  79
1720811591,478:      3  79  79
1720811591,478:     15  79  79
1720811591,478:     36  79  79
1720811591,478:     43  79  79
1720811591,478:     38  79  79
1720811591,478:     42  79  79
1720811591,478:     59  79  79
1720811591,478:     58  79  79
1720811591,478:     16  79  79
1720811591,478:    -45  79  79
1720811591,478:    -80  79  79
1720811591,478:    -88  79  79
1720811591,478:   -124  79  79
1720811591,478:   -231  79  79
1720811591,478:   -373  79  79
1720811591,478:   -443  79  79
1720811591,478:   -351  79  79
1720811591,514:    -86  79  79
1720811591,514:    333  79  79
1720811591,514:    950  79  79
1720811591,514:   1875  79  79
1720811591,514:   3138  79  79
1720811591,514:   4563  79  79
1720811591,514:   5842  79  79
1720811591,514:   6781  79  79
1720811591,514:   7450  79  79
1720811591,514:   8026  79  79
1720811591,514:   8474  79  79
1720811591,514:   8447  79  79
1720811591,514:   7575  79  79
1720811591,514:   5897  79  79
1720811591,514:   3920  79  79
1720811591,555:   2232  81  79
1720811591,555:   1031  81  79
1720811591,555:     80  81  79
1720811591,555:   -903  81  79
1720811591,555:  -1888  81  79
1720811591,555:  -2564  81  79
1720811591,555:  -2684  81  79
1720811591,555:  -2321  81  79
1720811591,555:  -1775  81  79
1720811591,555:  -1326  81  79
1720811591,555:  -1082  81  79
1720811591,555:  -1010  81  79
1720811591,555:  -1040  81  79
1720811591,555:  -1105  81  79
1720811591,555:  -1151  81  79
1720811591,555:  -1157  81  79
1720811591,555:  -1147  81  79
1720811591,555:  -1170  81  79
1720811591,555:  -1235  81  79
1720811591,555:  -1301  81  79
1720811591,555:  -1319  81  79
1720811591,555:  -1292  81  79
1720811591,555:  -1257  81  79
1720811591,584:  -1234  81  79
1720811591,584:  -1220  81  79
1720811591,584:  -1210  81  79
1720811591,584:  -1210  81  79
1720811591,584:  -1227  81  79
1720811591,584:  -1238  81  79
1720811591,584:  -1206  81  79
1720811591,584:  -1116  81  79
1720811591,584:  -1001  81  79
1720811591,584:   -915  81  79
1720811591,584:   -885  81  79
1720811591,584:   -888  81  79
1720811591,584:   -890  81  79
1720811591,584:   -882  81  79
1720811591,584:   -875  81  79
1720811591,615:   -868  81  79
1720811591,615:   -840  81  79
1720811591,615:   -778  81  79
1720811591,615:   -705  81  79
1720811591,615:   -662  81  79
1720811591,615:   -663  81  79
1720811591,615:   -681  81  79
1720811591,615:   -681  81  79
1720811591,615:   -661  81  79
1720811591,615:   -646  81  79
1720811591,615:   -648  81  79
1720811591,615:   -641  81  79
1720811591,615:   -597  81  79
1720811591,615:   -526  81  79
1720811591,615:   -475  81  79
1720811591,647:   -472  81  79
1720811591,647:   -490  81  79
1720811591,647:   -485  81  79
1720811591,647:   -452  81  79
1720811591,647:   -427  81  79
1720811591,647:   -437  81  79
1720811591,647:   -456  81  79
1720811591,647:   -442  81  79
1720811591,647:   -389  81  79
1720811591,647:   -342  81  79
1720811591,647:   -339  81  79
1720811591,647:   -362  81  79
1720811591,647:   -364  81  79
1720811591,647:   -329  81  79
1720811591,647:   -291  81  79
1720811591,678:   -281  81  79
1720811591,678:   -286  81  79
1720811591,678:   -270  81  79
1720811591,678:   -226  81  79
1720811591,678:   -187  81  79
1720811591,678:   -184  81  79
1720811591,678:   -204  81  79
1720811591,678:   -207  81  79
1720811591,678:   -181  81  79
1720811591,678:   -153  81  79
1720811591,678:   -148  81  79
1720811591,678:   -156  81  79
1720811591,678:   -144  81  79
1720811591,678:   -105  81  79
1720811591,678:    -69  81  79
1720811591,678:    -65  81  79
1720811591,678:    -87  81  79
1720811591,678:    -96  81  79
1720811591,678:    -77  81  79
1720811591,678:    -52  81  79
1720811591,678:    -56  81  79
1720811591,678:    -87  81  79
1720811591,724:   -111  81  79
1720811591,724:   -104  81  79
1720811591,724:    -83  81  79
1720811591,724:    -86  81  79
1720811591,724:   -126  81  79
1720811591,724:   -168  81  79
1720811591,724:   -179  81  79
1720811591,724:   -164  81  79
1720811591,724:   -159  81  79
1720811591,724:   -186  81  79
1720811591,724:   -222  81  79
1720811591,724:   -228  81  79
1720811591,724:   -205  81  79
1720811591,724:   -189  81  79
1720811591,724:   -205  81  79
1720811591,760:   -233  81  79
1720811591,760:   -236  81  79
1720811591,760:   -206  81  79
1720811591,760:   -171  81  79
1720811591,760:   -159  81  79
1720811591,760:   -160  81  79
1720811591,760:   -148  81  79
1720811591,760:   -121  81  79
1720811591,760:   -106  81  79
1720811591,760:   -123  81  79
1720811591,760:   -149  81  79
1720811591,760:   -149  81  79
1720811591,760:   -114  81  79
1720811591,760:    -76  81  79
1720811591,760:    -66  81  79
1720811591,760:    -72  81  79
1720811591,760:    -58  81  79
1720811591,760:    -14  81  79
1720811591,760:     33  81  79
1720811591,760:     47  81  79
1720811591,760:     31  81  79
1720811591,760:     20  81  79
1720811591,760:     34  81  79
1720811591,787:     59  81  79
1720811591,787:     64  81  79
1720811591,787:     46  81  79
1720811591,787:     35  81  79
1720811591,787:     51  81  79
1720811591,787:     78  81  79
1720811591,787:     78  81  79
1720811591,787:     45  81  79
1720811591,787:     11  81  79
1720811591,787:     12  81  79
1720811591,787:     45  81  79
1720811591,787:     71  81  79
1720811591,787:     66  81  79
1720811591,787:     46  81  79
1720811591,787:     41  81  79
1720811591,819:     57  81  79
1720811591,819:     69  81  79
1720811591,819:     61  81  79
1720811591,819:     49  81  79
1720811591,819:     55  81  79
1720811591,819:     75  81  79
1720811591,819:     84  81  79
1720811591,819:     69  81  79
1720811591,819:     49  81  79
1720811591,819:     50  81  79
1720811591,819:     68  81  79
1720811591,819:     79  81  79
1720811591,819:     70  81  79
1720811591,819:     59  81  79
1720811591,819:     68  81  79
1720811591,860:     90  81  79
1720811591,860:    103  81  79
1720811591,860:     98  81  79
1720811591,860:     97  81  79
1720811591,860:    117  81  79
1720811591,860:    142  81  79
1720811591,860:    140  81  79
1720811591,860:    104  81  79
1720811591,860:     72  81  79
1720811591,860:     78  81  79
1720811591,860:    115  81  79
1720811591,860:    140  81  79
1720811591,860:    128  81  79
1720811591,860:    102  81  79
1720811591,860:    103  81  79
1720811591,860:    132  81  79
1720811591,860:    150  81  79
1720811591,860:    127  81  79
1720811591,860:     81  81  79
1720811591,860:     57  81  79
1720811591,860:     72  81  79
1720811591,860:     98  81  79
1720811591,926:     98  81  79
1720811591,926:     77  81  79
1720811591,926:     70  81  79
1720811591,926:     94  81  79
1720811591,926:    124  81  79
1720811591,926:    121  81  79
1720811591,926:     83  81  79
1720811591,926:     45  81  79
1720811591,926:     38  81  79
1720811591,926:     49  81  79
1720811591,926:     45  81  79
1720811591,926:     23  81  79
1720811591,926:     12  81  79
1720811591,926:     35  81  79
1720811591,926:     72  81  79
1720811591,926:     82  81  79
1720811591,926:     55  81  79
1720811591,926:     23  81  79
1720811591,926:     22  81  79
1720811591,926:     50  81  79
1720811591,926:     70  81  79
1720811591,926:     59  81  79
1720811591,926:     37  81  79
1720811591,961:     33  81  79
1720811591,961:     51  81  79
1720811591,961:     65  81  79
1720811591,961:     58  81  79
1720811591,961:     45  81  79
1720811591,961:     49  81  79
1720811591,961:     68  81  79
1720811591,961:     75  81  79
1720811591,961:     58  81  79
1720811591,961:     39  81  79
1720811591,961:     41  81  79
1720811591,961:     58  81  79
1720811591,961:     55  81  79
1720811591,961:     19  81  79
1720811591,961:    -18  81  79
1720811591,961:    -18  81  79
1720811591,961:     13  81  79
1720811591,961:     33  81  79
1720811591,961:     18  81  79
1720811591,961:     -3  81  79
1720811591,961:      8  81  79
1720811591,961:     48  81  79
1720811591,961:     70  81  79
1720811591,961:     47  81  79
1720811591,961:      7  81  79
1720811591,961:     -2  81  79
1720811591,961:     28  81  79
1720811591,961:     55  81  79
1720811591,961:     48  81  79
1720811591,961:     22  81  79
1720811592,008:     15  81  79
1720811592,008:     33  81  79
1720811592,008:     41  81  79
1720811592,008:     19  81  79
1720811592,008:    -12  81  79
1720811592,008:    -11  81  79
1720811592,008:     22  81  79
1720811592,008:     49  81  79
1720811592,008:     39  81  79
1720811592,008:     10  81  79
1720811592,008:      5  81  79
1720811592,008:     35  81  79
1720811592,008:     65  81  79
1720811592,008:     55  81  79
1720811592,008:     12  81  79
1720811592,008:    -23  81  79
1720811592,008:    -24  81  79
1720811592,008:     -5  81  79
1720811592,008:      6  81  79
1720811592,008:      6  81  79
1720811592,008:     19  81  79
1720811592,008:     54  81  79
1720811592,043:     87  81  79
1720811592,043:     85  81  79
1720811592,043:     51  81  79
1720811592,043:     20  81  79
1720811592,043:     22  81  79
1720811592,043:     42  81  79
1720811592,043:     45  81  79
1720811592,043:     18  81  79
1720811592,043:     -9  81  79
1720811592,043:      2  81  79
1720811592,043:     43  81  79
1720811592,043:     72  81  79
1720811592,043:     60  81  79
1720811592,043:     26  81  79
1720811592,043:     13  81  79
1720811592,069:     31  81  79
1720811592,069:     53  81  79
1720811592,069:     49  81  79
1720811592,069:     33  81  79
1720811592,069:     41  81  79
1720811592,069:     82  81  79
1720811592,069:    120  81  79
1720811592,069:    115  81  79
1720811592,069:     72  81  79
1720811592,069:     34  81  79
1720811592,069:     29  81  79
1720811592,069:     42  81  79
1720811592,069:     42  81  79
1720811592,069:     25  81  79
1720811592,069:     13  81  79
1720811592,069:     21  81  79
1720811592,069:     36  81  79
1720811592,069:     38  81  79
1720811592,069:     38  81  79
1720811592,069:     61  81  79
1720811592,069:    108  81  79
1720811592,069:    147  81  79
1720811592,069:    151  81  79
1720811592,101:    140  81  79
1720811592,101:    159  81  79
1720811592,101:    213  81  79
1720811592,101:    251  81  79
1720811592,101:    229  81  79
1720811592,101:    163  81  79
1720811592,101:    116  81  79
1720811592,101:    119  81  79
1720811592,101:    137  81  79
1720811592,101:    116  81  79
1720811592,101:     61  81  79
1720811592,101:     30  81  79
1720811592,131:     52  81  79
1720811592,131:     87  81  79
1720811592,131:     73  81  79
1720811592,131:      8  81  79
1720811592,131:    -51  81  79
1720811592,131:    -58  81  79
1720811592,131:    -40  81  79
1720811592,131:    -50  81  79
1720811592,131:    -99  81  79
1720811592,131:   -138  81  79
1720811592,131:   -131  81  79
1720811592,131:   -101  81  79
1720811592,131:    -95  81  79
1720811592,131:   -120  81  79
1720811592,131:   -132  81  79
1720811592,164:   -100  81  79
1720811592,164:    -49  81  79
1720811592,164:    -31  81  79
1720811592,164:    -50  81  79
1720811592,164:    -64  81  79
1720811592,164:    -36  81  79
1720811592,164:     10  81  79
1720811592,164:     23  81  79
1720811592,164:    -12  81  79
1720811592,164:    -50  81  79
1720811592,164:    -48  81  79
1720811592,164:    -14  81  79
1720811592,164:      9  81  79
1720811592,164:      0  81  79
1720811592,164:    -13  81  79
1720811592,195:      1  81  79
1720811592,195:     35  81  79
1720811592,195:     47  81  79
1720811592,195:     19  81  79
1720811592,195:    -19  81  79
1720811592,195:    -30  81  79
1720811592,195:    -16  81  79
1720811592,195:     -8  81  79
1720811592,195:    -20  81  79
1720811592,195:    -29  81  79
1720811592,195:     -4  81  79
1720811592,195:     47  81  79
1720811592,195:     89  81  79
1720811592,195:    101  81  79
1720811592,195:     97  81  79
1720811592,226:     92  81  79
1720811592,226:     79  81  79
1720811592,226:     42  81  79
1720811592,226:    -11  81  79
1720811592,226:    -66  81  79
1720811592,226:   -128  81  79
1720811592,226:   -223  81  79
1720811592,226:   -355  81  79
1720811592,226:   -464  81  79
1720811592,226:   -449  81  79
1720811592,226:   -231  81  79
1720811592,226:    212  81  79
1720811592,226:    895  81  79
1720811592,226:   1858  81  79
1720811592,226:   3118  81  79
1720811592,226:   4564  81  79
1720811592,226:   5951  81  79
1720811592,226:   7056  81  79
1720811592,226:   7837  81  79
1720811592,226:   8405  81  79
1720811592,226:   8782  81  79
1720811592,226:   8742  81  79
1720811592,226:   7966  81  79
1720811592,257:   6402  82  80
1720811592,257:   4445  82  80
1720811592,257:   2674  82  80
1720811592,257:   1394  82  80
1720811592,257:    450  82  80
1720811592,257:   -479  82  80
1720811592,257:  -1458  82  80
1720811592,257:  -2201  82  80
1720811592,257:  -2399  82  80
1720811592,257:  -2060  82  80
1720811592,257:  -1513  82  80
1720811592,257:  -1101  82  80
1720811592,257:   -935  82  80
1720811592,257:   -915  82  80
1720811592,257:   -928  82  80
1720811592,289:   -955  82  80
1720811592,289:  -1020  82  80
1720811592,289:  -1110  82  80
1720811592,289:  -1182  82  80
1720811592,289:  -1227  82  80
1720811592,289:  -1278  82  80
1720811592,289:  -1351  82  80
1720811592,289:  -1415  82  80
1720811592,289:  -1429  82  80
1720811592,289:  -1389  82  80
1720811592,289:  -1339  82  80
1720811592,289:  -1319  82  80
1720811592,289:  -1326  82  80
1720811592,289:  -1325  82  80
1720811592,289:  -1299  82  80
1720811592,321:  -1260  82  80
1720811592,321:  -1223  82  80
1720811592,321:  -1175  82  80
1720811592,321:  -1099  82  80
1720811592,321:  -1010  82  80
1720811592,321:   -953  82  80
1720811592,321:   -956  82  80
1720811592,321:   -992  82  80
1720811592,321:  -1003  82  80
1720811592,321:   -969  82  80
1720811592,321:   -919  82  80
1720811592,321:   -891  82  80
1720811592,321:   -872  82  80
1720811592,321:   -827  82  80
1720811592,321:   -748  82  80
1720811592,351:   -680  82  80
1720811592,351:   -671  82  80
1720811592,351:   -711  82  80
1720811592,351:   -742  82  80
1720811592,351:   -727  82  80
1720811592,351:   -686  82  80
1720811592,351:   -659  82  80
1720811592,382:   -653  82  80
1720811592,382:   -636  82  80
1720811592,382:   -591  82  80
1720811592,382:   -542  82  80
1720811592,382:   -529  82  80
1720811592,382:   -548  82  80
1720811592,382:   -558  82  80
1720811592,382:   -531  82  80
1720811592,382:   -486  82  80
1720811592,382:   -461  82  80
1720811592,382:   -462  82  80
1720811592,382:   -457  82  80
1720811592,382:   -425  82  80
1720811592,382:   -386  82  80
1720811592,382:   -379  82  80
1720811592,382:   -406  82  80
1720811592,382:   -425  82  80
1720811592,382:   -399  82  80
1720811592,382:   -344  82  80
1720811592,382:   -306  82  80
1720811592,382:   -304  82  80
1720811592,382:   -305  82  80
1720811592,382:   -270  82  80
1720811592,412:   -208  82  80
1720811592,412:   -170  82  80
1720811592,412:   -187  82  80
1720811592,412:   -226  82  80
1720811592,412:   -238  82  80
1720811592,412:   -216  82  80
1720811592,412:   -197  82  80
1720811592,412:   -208  82  80
1720811592,412:   -223  82  80
1720811592,412:   -201  82  80
1720811592,412:   -147  82  80
1720811592,412:   -111  82  80
1720811592,412:   -129  82  80
1720811592,412:   -171  82  80
1720811592,412:   -181  82  80
1720811592,442:   -148  82  80
1720811592,442:   -114  82  80
1720811592,442:   -119  82  80
1720811592,442:   -147  82  80
1720811592,442:   -153  82  80
1720811592,442:   -127  82  80
1720811592,442:   -106  82  80
1720811592,442:   -125  82  80
1720811592,442:   -168  82  80
1720811592,442:   -189  82  80
1720811592,442:   -176  82  80
1720811592,442:   -162  82  80
1720811592,442:   -182  82  80
1720811592,442:   -219  82  80
1720811592,442:   -230  82  80
1720811592,476:   -202  82  80
1720811592,476:   -171  82  80
1720811592,476:   -177  82  80
1720811592,476:   -213  82  80
1720811592,476:   -233  82  80
1720811592,476:   -216  82  80
1720811592,476:   -186  82  80
1720811592,476:   -173  82  80
1720811592,476:   -170  82  80
1720811592,476:   -145  82  80
1720811592,476:    -91  82  80
1720811592,476:    -45  82  80
1720811592,476:    -43  82  80
1720811592,476:    -69  82  80
1720811592,476:    -76  82  80
1720811592,506:    -42  82  80
1720811592,506:      4  82  80
1720811592,506:     17  82  80
1720811592,506:      0  82  80
1720811592,506:     -3  82  80
1720811592,506:     35  82  80
1720811592,506:     84  82  80
1720811592,506:     97  82  80
1720811592,506:     64  82  80
1720811592,506:     33  82  80
1720811592,506:     41  82  80
1720811592,506:     73  82  80
1720811592,506:     81  82  80
1720811592,506:     48  82  80
1720811592,506:     15  82  80
1720811592,506:     28  82  80
1720811592,506:     78  82  80
1720811592,506:    109  82  80
1720811592,506:     88  82  80
1720811592,506:     48  82  80
1720811592,506:     45  82  80
1720811592,506:     85  82  80
1720811592,538:    120  82  80
1720811592,538:    110  82  80
1720811592,538:     77  82  80
1720811592,538:     73  82  80
1720811592,538:    108  82  80
1720811592,538:    135  82  80
1720811592,538:    111  82  80
1720811592,538:     57  82  80
1720811592,568:     30  82  80
1720811592,568:     50  82  80
1720811592,568:     80  82  80
1720811592,568:     80  82  80
1720811592,568:     56  82  80
1720811592,568:     55  82  80
1720811592,568:     90  82  80
1720811592,568:    125  82  80
1720811592,568:    122  82  80
1720811592,568:     98  82  80
1720811592,568:     98  82  80
1720811592,568:    133  82  80
1720811592,568:    161  82  80
1720811592,568:    148  82  80
1720811592,568:    111  82  80
1720811592,600:    101  82  80
1720811592,600:    131  82  80
1720811592,600:    153  82  80
1720811592,600:    126  82  80
1720811592,600:     71  82  80
1720811592,600:     51  82  80
1720811592,600:     87  82  80
1720811592,600:    133  82  80
1720811592,600:    138  82  80
1720811592,600:    109  82  80
1720811592,600:     97  82  80
1720811592,600:    123  82  80
1720811592,600:    147  82  80
1720811592,600:    121  82  80
1720811592,600:     56  82  80
1720811592,600:     11  82  80
1720811592,600:     16  82  80
1720811592,600:     38  82  80
1720811592,600:     32  82  80
1720811592,600:      0  82  80
1720811592,600:     -8  82  80
1720811592,600:     30  82  80
1720811592,632:     76  82  80
1720811592,632:     82  82  80
1720811592,632:     51  82  80
1720811592,632:     39  82  80
1720811592,632:     72  82  80
1720811592,632:    119  82  80
1720811592,632:    129  82  80
1720811592,632:    106  82  80
1720811592,632:    104  82  80
1720811592,632:    153  82  80
1720811592,632:    212  82  80
1720811592,632:    213  82  80
1720811592,632:    151  82  80
1720811592,632:     95  82  80
1720811592,632:    100  82  80
1720811592,664:    145  82  80
1720811592,664:    157  82  80
1720811592,664:    108  82  80
1720811592,664:     44  82  80
1720811592,664:     29  82  80
1720811592,664:     61  82  80
1720811592,664:     80  82  80
1720811592,664:     48  82  80
1720811592,664:     -1  82  80
1720811592,664:    -11  82  80
1720811592,664:     20  82  80
1720811592,664:     42  82  80
1720811592,664:     20  82  80
1720811592,664:    -14  82  80
1720811592,664:     -5  82  80
1720811592,696:     51  82  80
1720811592,696:     93  82  80
1720811592,696:     71  82  80
1720811592,696:      8  82  80
1720811592,696:    -27  82  80
1720811592,696:     -2  82  80
1720811592,696:     45  82  80
1720811592,696:     62  82  80
1720811592,696:     48  82  80
1720811592,696:     43  82  80
1720811592,696:     68  82  80
1720811592,696:     93  82  80
1720811592,696:     82  82  80
1720811592,696:     48  82  80
1720811592,696:     34  82  80
1720811592,728:     57  82  80
1720811592,728:     81  82  80
1720811592,728:     72  82  80
1720811592,728:     46  82  80
1720811592,728:     49  82  80
1720811592,728:     91  82  80
1720811592,728:    124  82  80
1720811592,728:     99  82  80
1720811592,728:     32  82  80
1720811592,728:    -11  82  80
1720811592,728:      1  82  80
1720811592,728:     30  82  80
1720811592,728:     22  82  80
1720811592,728:    -21  82  80
1720811592,728:    -43  82  80
1720811592,760:    -10  82  80
1720811592,760:     42  82  80
1720811592,760:     49  82  80
1720811592,760:     -3  82  80
1720811592,760:    -58  82  80
1720811592,760:    -63  82  80
1720811592,760:    -28  82  80
1720811592,760:    -10  82  80
1720811592,760:    -33  82  80
1720811592,760:    -61  82  80
1720811592,760:    -50  82  80
1720811592,760:     -9  82  80
1720811592,760:      5  82  80
1720811592,760:    -32  82  80
1720811592,760:    -78  82  80
1720811592,790:    -77  82  80
1720811592,790:    -34  82  80
1720811592,790:     -7  82  80
1720811592,790:    -29  82  80
1720811592,790:    -64  82  80
1720811592,790:    -57  82  80
1720811592,790:    -10  82  80
1720811592,790:     10  82  80
1720811592,790:    -31  82  80
1720811592,790:    -85  82  80
1720811592,790:    -74  82  80
1720811592,790:      7  82  80
1720811592,790:     79  82  80
1720811592,790:     78  82  80
1720811592,790:     33  82  80
1720811592,820:     24  82  80
1720811592,820:     71  82  80
1720811592,820:    112  82  80
1720811592,820:     83  82  80
1720811592,820:     10  82  80
1720811592,820:    -27  82  80
1720811592,820:     10  82  80
1720811592,820:     73  82  80
1720811592,820:     98  82  80
1720811592,820:     91  82  80
1720811592,820:    107  82  80
1720811592,820:    166  82  80
1720811592,820:    226  82  80
1720811592,820:    233  82  80
1720811592,820:    194  82  80
1720811592,820:    164  82  80
1720811592,820:    167  82  80
1720811592,820:    172  82  80
1720811592,820:    136  82  80
1720811592,820:     71  82  80
1720811592,820:     23  82  80
1720811592,820:     15  82  80
1720811592,820:     18  82  80
1720811592,884:     -5  82  80
1720811592,884:    -50  82  80
1720811592,884:    -71  82  80
1720811592,884:    -49  82  80
1720811592,884:    -16  82  80
1720811592,884:    -23  82  80
1720811592,884:    -74  82  80
1720811592,884:   -124  82  80
1720811592,884:   -136  82  80
1720811592,884:   -125  82  80
1720811592,884:   -133  82  80
1720811592,884:   -170  82  80
1720811592,884:   -192  82  80
1720811592,884:   -162  82  80
1720811592,884:    -95  82  80
1720811593,066:    -50  82  80
1720811593,066:    -51  82  80
1720811593,066:    -65  82  80
1720811593,066:    -48  82  80
1720811593,066:     -8  82  80
1720811593,066:      3  82  80
1720811593,066:    -44  82  80
1720811593,066:   -111  82  80
1720811593,066:   -138  82  80
1720811593,066:   -115  82  80
1720811593,066:    -87  82  80
1720811593,066:    -93  82  80
1720811593,066:   -116  82  80
1720811593,066:   -109  82  80
1720811593,066:    -68  82  80
1720811593,066:    -36  82  80
1720811593,066:    -54  82  80
1720811593,066:    -96  82  80
1720811593,066:   -110  82  80
1720811593,066:    -85  82  80
1720811593,066:    -65  82  80
1720811593,066:    -88  82  80
1720811593,095:   -127  82  80
1720811593,095:   -125  82  80
1720811593,095:    -68  82  80
1720811593,095:     -1  82  80
1720811593,095:     25  82  80
1720811593,095:     20  82  80
1720811593,095:     33  82  80
1720811593,095:     70  82  80
1720811593,095:     79  82  80
1720811593,095:     26  82  80
1720811593,095:    -52  82  80
1720811593,095:    -89  82  80
1720811593,095:    -87  82  80
1720811593,095:   -120  82  80
1720811593,095:   -237  82  80
1720811593,095:   -373  82  80
1720811593,095:   -384  82  80
1720811593,095:   -185  82  80
1720811593,095:    185  82  80
1720811593,095:    681  82  80
1720811593,095:   1370  82  80
1720811593,095:   2371  82  80
1720811593,095:   3649  82  80
1720811593,126:   4927  82  80
1720811593,126:   5887  82  80
1720811593,126:   6470  82  80
1720811593,126:   6887  82  80
1720811593,126:   7288  82  80
1720811593,126:   7465  82  80
1720811593,126:   6997  82  80
1720811593,126:   5714  82  80
1720811593,126:   3963  82  80
1720811593,126:   2339  82  80
1720811593,126:   1171  82  80
1720811593,126:    321  82  80
1720811593,126:   -514  82  80
1720811593,126:  -1402  82  80
1720811593,126:  -2106  82  80
1720811593,126:  -2370  82  80
1720811593,126:  -2187  82  80
1720811593,126:  -1777  82  80
1720811593,126:  -1368  82  80
1720811593,126:  -1071  82  80
1720811593,126:   -908  82  80
1720811593,126:   -864  82  80
1720811593,157:   -898  83  81
1720811593,157:   -932  83  81
1720811593,157:   -908  83  81
1720811593,157:   -847  83  81
1720811593,157:   -827  83  81
1720811593,157:   -891  83  81
1720811593,157:   -992  83  81
1720811593,157:  -1047  83  81
1720811593,157:  -1036  83  81
1720811593,157:  -1018  83  81
1720811593,157:  -1047  83  81
1720811593,157:  -1103  83  81
1720811593,157:  -1127  83  81
1720811593,157:  -1091  83  81
1720811593,157:  -1031  83  81
1720811593,157:   -992  83  81
1720811593,157:   -963  83  81
1720811593,157:   -893  83  81
1720811593,157:   -767  83  81
1720811593,157:   -640  83  81
1720811593,157:   -587  83  81
1720811593,157:   -611  83  81
1720811593,157:   -649  83  81
1720811593,188:   -651  83  81
1720811593,188:   -632  83  81
1720811593,188:   -635  83  81
1720811593,188:   -656  83  81
1720811593,188:   -646  83  81
1720811593,188:   -577  83  81
1720811593,188:   -489  83  81
1720811593,188:   -442  83  81
1720811593,188:   -448  83  81
1720811593,188:   -457  83  81
1720811593,188:   -433  83  81
1720811593,188:   -400  83  81
1720811593,188:   -400  83  81
1720811593,188:   -433  83  81
1720811593,188:   -452  83  81
1720811593,188:   -424  83  81
1720811593,188:   -378  83  81
1720811593,188:   -366  83  81
1720811593,188:   -394  83  81
1720811593,188:   -412  83  81
1720811593,188:   -382  83  81
1720811593,188:   -328  83  81
1720811593,218:   -300  83  81
1720811593,218:   -309  83  81
1720811593,218:   -305  83  81
1720811593,218:   -249  83  81
1720811593,218:   -167  83  81
1720811593,218:   -123  83  81
1720811593,218:   -146  83  81
1720811593,218:   -190  83  81
1720811593,218:   -191  83  81
1720811593,218:   -147  83  81
1720811593,218:   -108  83  81
1720811593,218:   -108  83  81
1720811593,218:   -120  83  81
1720811593,218:    -98  83  81
1720811593,218:    -40  83  81
1720811593,218:      5  83  81
1720811593,218:      4  83  81
1720811593,218:    -17  83  81
1720811593,218:     -8  83  81
1720811593,218:     32  83  81
1720811593,250:     60  83  81
1720811593,250:     42  83  81
1720811593,250:      6  83  81
1720811593,250:      5  83  81
1720811593,250:     47  83  81
1720811593,250:     85  83  81
1720811593,250:     75  83  81
1720811593,250:     38  83  81
1720811593,250:     25  83  81
1720811593,250:     53  83  81
1720811593,250:     90  83  81
1720811593,250:     96  83  81
1720811593,250:     78  83  81
1720811593,250:     68  83  81
1720811593,250:     73  83  81
1720811593,250:     59  83  81
1720811593,250:      2  83  81
1720811593,250:    -74  83  81
1720811593,250:   -118  83  81
1720811593,250:   -118  83  81
1720811593,250:   -111  83  81
1720811593,250:   -138  83  81
1720811593,282:   -183  83  81
1720811593,282:   -192  83  81
1720811593,282:   -143  83  81
1720811593,282:    -78  83  81
1720811593,282:    -57  83  81
1720811593,282:    -93  83  81
1720811593,282:   -136  83  81
1720811593,282:   -139  83  81
1720811593,282:   -110  83  81
1720811593,282:    -98  83  81
1720811593,282:   -123  83  81
1720811593,282:   -155  83  81
1720811593,282:   -154  83  81
1720811593,282:   -125  83  81
1720811593,282:   -110  83  81
1720811593,282:   -131  83  81
1720811593,282:   -156  83  81
1720811593,282:   -138  83  81
1720811593,282:    -78  83  81
1720811593,282:    -24  83  81
1720811593,282:    -14  83  81
1720811593,282:    -26  83  81
1720811593,282:    -12  83  81
1720811593,314:     32  83  81
1720811593,314:     56  83  81
1720811593,314:     20  83  81
1720811593,314:    -51  83  81
1720811593,314:   -100  83  81
1720811593,314:   -105  83  81
1720811593,314:   -104  83  81
1720811593,314:   -131  83  81
1720811593,314:   -163  83  81
1720811593,314:   -151  83  81
1720811593,314:    -92  83  81
1720811593,314:    -42  83  81
1720811593,314:    -49  83  81
1720811593,314:    -92  83  81
1720811593,314:   -112  83  81
1720811593,314:    -91  83  81
1720811593,314:    -74  83  81
1720811593,314:   -100  83  81
1720811593,314:   -144  83  81
1720811593,314:   -145  83  81
1720811593,314:    -90  83  81
1720811593,314:    -32  83  81
1720811593,346:    -25  83  81
1720811593,346:    -51  83  81
1720811593,346:    -51  83  81
1720811593,346:     -6  83  81
1720811593,346:     39  83  81
1720811593,346:     31  83  81
1720811593,346:    -15  83  81
1720811593,346:    -38  83  81
1720811593,346:    -12  83  81
1720811593,346:     20  83  81
1720811593,346:      8  83  81
1720811593,346:    -38  83  81
1720811593,346:    -59  83  81
1720811593,346:    -24  83  81
1720811593,346:     23  83  81
1720811593,346:     27  83  81
1720811593,346:     -8  83  81
1720811593,346:    -20  83  81
1720811593,346:     19  83  81
1720811593,346:     66  83  81
1720811593,346:     55  83  81
1720811593,346:     -8  83  81
1720811593,346:    -51  83  81
1720811593,377:    -22  83  81
1720811593,377:     36  83  81
1720811593,377:     47  83  81
1720811593,377:      1  83  81
1720811593,377:    -30  83  81
1720811593,377:     18  83  81
1720811593,377:    106  83  81
1720811593,377:    140  83  81
1720811593,377:     89  83  81
1720811593,377:     22  83  81
1720811593,377:     27  83  81
1720811593,377:     95  83  81
1720811593,377:    143  83  81
1720811593,377:    117  83  81
1720811593,377:     61  83  81
1720811593,377:     48  83  81
1720811593,377:     89  83  81
1720811593,377:    122  83  81
1720811593,377:     97  83  81
1720811593,377:     48  83  81
1720811593,377:     38  83  81
1720811593,377:     81  83  81
1720811593,407:    120  83  81
1720811593,407:    106  83  81
1720811593,407:     62  83  81
1720811593,407:     48  83  81
1720811593,407:     81  83  81
1720811593,407:    111  83  81
1720811593,407:     88  83  81
1720811593,407:     31  83  81
1720811593,407:      5  83  81
1720811593,407:     39  83  81
1720811593,407:     89  83  81
1720811593,407:     95  83  81
1720811593,407:     58  83  81
1720811593,407:     39  83  81
1720811593,407:     70  83  81
1720811593,407:    113  83  81
1720811593,407:    106  83  81
1720811593,407:     44  83  81
1720811593,407:     -9  83  81
1720811593,407:     -5  83  81
1720811593,407:     37  83  81
1720811593,407:     58  83  81
1720811593,407:     40  83  81
1720811593,437:     25  83  81
1720811593,437:     50  83  81
1720811593,437:     92  83  81
1720811593,437:     98  83  81
1720811593,437:     56  83  81
1720811593,437:     16  83  81
1720811593,437:     21  83  81
1720811593,437:     52  83  81
1720811593,437:     56  83  81
1720811593,437:     15  83  81
1720811593,437:    -23  83  81
1720811593,437:    -13  83  81
1720811593,437:     29  83  81
1720811593,437:     43  83  81
1720811593,437:      1  83  81
1720811593,437:    -52  83  81
1720811593,437:    -60  83  81
1720811593,437:    -23  83  81
1720811593,437:      3  83  81
1720811593,437:    -15  83  81
1720811593,437:    -47  83  81
1720811593,437:    -40  83  81
1720811593,467:      7  83  81
1720811593,467:     41  83  81
1720811593,467:     25  83  81
1720811593,467:    -11  83  81
1720811593,467:    -12  83  81
1720811593,467:     31  83  81
1720811593,467:     68  83  81
1720811593,467:     60  83  81
1720811593,467:     36  83  81
1720811593,467:     48  83  81
1720811593,467:    101  83  81
1720811593,467:    138  83  81
1720811593,467:    110  83  81
1720811593,467:     47  83  81
1720811593,467:     13  83  81
1720811593,467:     29  83  81
1720811593,467:     50  83  81
1720811593,467:     33  83  81
1720811593,467:      1  83  81
1720811593,467:     12  83  81
1720811593,467:     77  83  81
1720811593,467:    142  83  81
1720811593,467:    156  83  81
1720811593,497:    137  83  81
1720811593,497:    146  83  81
1720811593,497:    204  83  81
1720811593,497:    260  83  81
1720811593,497:    262  83  81
1720811593,497:    219  83  81
1720811593,497:    190  83  81
1720811593,497:    206  83  81
1720811593,497:    227  83  81
1720811593,497:    202  83  81
1720811593,497:    139  83  81
1720811593,497:     96  83  81
1720811593,497:    102  83  81
1720811593,497:    120  83  81
1720811593,497:     98  83  81
1720811593,528:     38  83  81
1720811593,528:     -4  83  81
1720811593,528:      6  83  81
1720811593,528:     32  83  81
1720811593,528:     10  83  81
1720811593,528:    -68  83  81
1720811593,528:   -140  83  81
1720811593,559:   -153  83  81
1720811593,559:   -122  83  81
1720811593,559:   -109  83  81
1720811593,559:   -141  83  81
1720811593,559:   -178  83  81
1720811593,559:   -173  83  81
1720811593,559:   -138  83  81
1720811593,559:   -130  83  81
1720811593,559:   -173  83  81
1720811593,559:   -220  83  81
1720811593,559:   -218  83  81
1720811593,559:   -172  83  81
1720811593,559:   -135  83  81
1720811593,559:   -140  83  81
1720811593,559:   -151  83  81
1720811593,591:   -121  83  81
1720811593,591:    -57  83  81
1720811593,591:    -24  83  81
1720811593,591:    -57  83  81
1720811593,591:   -119  83  81
1720811593,591:   -141  83  81
1720811593,591:   -107  83  81
1720811593,591:    -66  83  81
1720811593,591:    -66  83  81
1720811593,591:    -88  83  81
1720811593,591:    -80  83  81
1720811593,591:    -29  83  81
1720811593,591:     17  83  81
1720811593,591:     13  83  81
1720811593,591:    -27  83  81
1720811593,591:    -45  83  81
1720811593,591:    -21  83  81
1720811593,591:     12  83  81
1720811593,591:     14  83  81
1720811593,591:     -2  83  81
1720811593,591:     13  83  81
1720811593,591:     70  83  81
1720811593,591:    116  83  81
1720811593,621:     94  83  81
1720811593,621:     24  83  81
1720811593,621:    -22  83  81
1720811593,621:     -3  83  81
1720811593,621:     29  83  81
1720811593,621:      1  83  81
1720811593,621:    -86  83  81
1720811593,621:   -147  83  81
1720811593,621:   -103  83  81
1720811593,621:     54  83  81
1720811593,621:    291  83  81
1720811593,621:    628  83  81
1720811593,621:   1179  83  81
1720811593,621:   2052  83  81
1720811593,621:   3200  83  81
1720811593,651:   4384  83  81
1720811593,651:   5327  83  81
1720811593,651:   5936  83  81
1720811593,651:   6361  83  81
1720811593,651:   6772  83  81
1720811593,651:   7076  83  81
1720811593,651:   6894  83  81
1720811593,651:   5904  83  81
1720811593,651:   4212  83  81
1720811593,651:   2346  83  81
1720811593,651:    846  83  81
1720811593,651:   -155  83  81
1720811593,651:   -920  83  81
1720811593,651:  -1726  83  81
1720811593,651:  -2543  83  81
1720811593,682:  -3083  90  84
1720811593,682:  -3116  90  84
1720811593,682:  -2692  90  84
1720811593,682:  -2078  90  84
1720811593,682:  -1552  90  84
1720811593,682:  -1251  90  84
1720811593,682:  -1148  90  84
1720811593,682:  -1130  90  84
1720811593,682:  -1101  90  84
1720811593,682:  -1026  90  84
1720811593,682:   -939  90  84
1720811593,682:   -882  90  84
1720811593,682:   -861  90  84
1720811593,682:   -851  90  84
1720811593,682:   -838  90  84
1720811593,712:   -833  90  84
1720811593,712:   -836  90  84
1720811593,712:   -812  90  84
1720811593,712:   -731  90  84
1720811593,712:   -637  90  84
1720811593,712:   -618  90  84
1720811593,712:   -707  90  84
1720811593,712:   -827  90  84
1720811593,712:   -865  90  84
1720811593,712:   -789  90  84
1720811593,712:   -666  90  84
1720811593,712:   -582  90  84
1720811593,712:   -554  90  84
1720811593,712:   -532  90  84
1720811593,712:   -487  90  84
1720811593,742:   -447  90  84
1720811593,742:   -456  90  84
1720811593,742:   -502  90  84
1720811593,742:   -525  90  84
1720811593,742:   -488  90  84
1720811593,742:   -417  90  84
1720811593,742:   -362  90  84
1720811593,742:   -336  90  84
1720811593,742:   -309  90  84
1720811593,742:   -266  90  84
1720811593,742:   -240  90  84
1720811593,742:   -265  90  84
1720811593,742:   -328  90  84
1720811593,742:   -367  90  84
1720811593,742:   -343  90  84
1720811593,772:   -283  90  84
1720811593,772:   -241  90  84
1720811593,772:   -230  90  84
1720811593,772:   -215  90  84
1720811593,772:   -167  90  84
1720811593,772:   -112  90  84
1720811593,772:   -100  90  84
1720811593,772:   -139  90  84
1720811593,772:   -175  90  84
1720811593,772:   -161  90  84
1720811593,772:   -110  90  84
1720811593,772:    -79  90  84
1720811593,772:    -92  90  84
1720811593,772:   -110  90  84
1720811593,772:    -81  90  84
1720811593,802:    -10  90  84
1720811593,802:     41  90  84
1720811593,802:     33  90  84
1720811593,802:     -5  90  84
1720811593,802:     -9  90  84
1720811593,802:     36  90  84
1720811593,802:     81  90  84
1720811593,802:     81  90  84
1720811593,802:     52  90  84
1720811593,802:     47  90  84
1720811593,802:     86  90  84
1720811593,802:    127  90  84
1720811593,802:    128  90  84
1720811593,802:    101  90  84
1720811593,802:     95  90  84
1720811593,802:    127  90  84
1720811593,802:    159  90  84
1720811593,802:    151  90  84
1720811593,802:    119  90  84
1720811593,802:    114  90  84
1720811593,802:    145  90  84
1720811593,802:    167  90  84
1720811593,832:    134  90  84
1720811593,832:     68  90  84
1720811593,832:     36  90  84
1720811593,832:     65  90  84
1720811593,832:    111  90  84
1720811593,832:    114  90  84
1720811593,832:     76  90  84
1720811593,832:     49  90  84
1720811593,863:     66  90  84
1720811593,863:     94  90  84
1720811593,863:     78  90  84
1720811593,863:     16  90  84
1720811593,863:    -35  90  84
1720811593,863:    -34  90  84
1720811593,863:     -9  90  84
1720811593,863:    -18  90  84
1720811593,863:    -69  90  84
1720811593,863:   -107  90  84
1720811593,863:    -89  90  84
1720811593,863:    -36  90  84
1720811593,863:    -16  90  84
1720811593,863:    -52  90  84
1720811593,863:    -93  90  84
1720811593,893:    -78  90  84
1720811593,893:    -19  90  84
1720811593,893:     21  90  84
1720811593,893:      8  90  84
1720811593,893:    -24  90  84
1720811593,893:    -18  90  84
1720811593,893:     20  90  84
1720811593,893:     33  90  84
1720811593,893:    -17  90  84
1720811593,893:    -91  90  84
1720811593,893:   -121  90  84
1720811593,893:    -92  90  84
1720811593,893:    -54  90  84
1720811593,893:    -56  90  84
1720811593,893:    -89  90  84
1720811593,924:   -112  90  84
1720811593,924:   -103  90  84
1720811593,924:    -86  90  84
1720811593,924:    -89  90  84
1720811593,924:   -109  90  84
1720811593,924:   -121  90  84
1720811593,924:   -118  90  84
1720811593,924:   -119  90  84
1720811593,924:   -135  90  84
1720811593,924:   -151  90  84
1720811593,924:   -144  90  84
1720811593,924:   -119  90  84
1720811593,924:   -106  90  84
1720811593,924:   -122  90  84
1720811593,924:   -150  90  84
1720811593,924:   -156  90  84
1720811593,924:   -135  90  84
1720811593,924:   -114  90  84
1720811593,924:   -114  90  84
1720811593,924:   -125  90  84
1720811593,924:   -116  90  84
1720811593,924:    -86  90  84
1720811593,955:    -68  90  84
1720811593,955:    -94  90  84
1720811593,955:   -143  90  84
1720811593,955:   -162  90  84
1720811593,955:   -131  90  84
1720811593,955:    -87  90  84
1720811593,955:    -82  90  84
1720811593,955:   -113  90  84
1720811593,955:   -123  90  84
1720811593,955:    -76  90  84
1720811593,955:     -7  90  84
1720811593,955:     17  90  84
1720811593,955:    -19  90  84
1720811593,955:    -56  90  84
1720811593,955:    -43  90  84
1720811593,985:     -1  90  84
1720811593,985:      1  90  84
1720811593,985:    -59  90  84
1720811593,985:   -120  90  84
1720811593,985:   -113  90  84
1720811593,985:    -44  90  84
1720811593,985:      9  90  84
1720811593,985:     -4  90  84
1720811593,985:    -49  90  84
1720811593,985:    -59  90  84
1720811593,985:    -15  90  84
1720811593,985:     34  90  84
1720811593,985:     43  90  84
1720811593,985:     21  90  84
1720811593,985:     10  90  84
1720811594,016:     17  90  84
1720811594,016:     11  90  84
1720811594,016:    -21  90  84
1720811594,016:    -45  90  84
1720811594,016:    -23  90  84
1720811594,016:     31  90  84
1720811594,016:     60  90  84
1720811594,016:     38  90  84
1720811594,016:      6  90  84
1720811594,016:     20  90  84
1720811594,016:     76  90  84
1720811594,016:    110  90  84
1720811594,016:     73  90  84
1720811594,016:     -1  90  84
1720811594,016:    -41  90  84
1720811594,047:    -21  90  84
1720811594,047:     14  90  84
1720811594,047:     17  90  84
1720811594,047:      0  90  84
1720811594,047:     10  90  84
1720811594,047:     56  90  84
1720811594,047:     90  90  84
1720811594,047:     69  90  84
1720811594,047:     16  90  84
1720811594,047:    -10  90  84
1720811594,047:      9  90  84
1720811594,047:     27  90  84
1720811594,047:      3  90  84
1720811594,047:    -39  90  84
1720811594,047:    -41  90  84
1720811594,077:     12  90  84
1720811594,077:     63  90  84
1720811594,077:     50  90  84
1720811594,077:     -7  90  84
1720811594,077:    -36  90  84
1720811594,077:      0  90  84
1720811594,077:     53  90  84
1720811594,077:     58  90  84
1720811594,077:     13  90  84
1720811594,077:    -16  90  84
1720811594,077:     13  90  84
1720811594,077:     65  90  84
1720811594,077:     73  90  84
1720811594,077:     27  90  84
1720811594,077:    -13  90  84
1720811594,107:      3  90  84
1720811594,107:     52  90  84
1720811594,107:     76  90  84
1720811594,107:     52  90  84
1720811594,107:     24  90  84
1720811594,107:     34  90  84
1720811594,107:     68  90  84
1720811594,107:     75  90  84
1720811594,107:     39  90  84
1720811594,107:      3  90  84
1720811594,107:     14  90  84
1720811594,107:     61  90  84
1720811594,107:     95  90  84
1720811594,107:     93  90  84
1720811594,107:     90  90  84
1720811594,107:    129  90  84
1720811594,107:    196  90  84
1720811594,107:    234  90  84
1720811594,107:    212  90  84
1720811594,107:    168  90  84
1720811594,138:    160  90  84
1720811594,138:    193  90  84
1720811594,138:    219  90  84
1720811594,138:    197  90  84
1720811594,138:    148  90  84
1720811594,138:    125  90  84
1720811594,138:    145  90  84
1720811594,138:    161  90  84
1720811594,138:    128  90  84
1720811594,138:     59  90  84
1720811594,138:      9  90  84
1720811594,138:     -1  90  84
1720811594,138:     -3  90  84
1720811594,138:    -38  90  84
1720811594,138:    -93  90  84
1720811594,168:   -121  90  84
1720811594,168:   -104  90  84
1720811594,168:    -85  90  84
1720811594,168:   -109  90  84
1720811594,168:   -163  90  84
1720811594,168:   -187  90  84
1720811594,168:   -154  90  84
1720811594,168:   -111  90  84
1720811594,168:   -114  90  84
1720811594,168:   -154  90  84
1720811594,168:   -170  90  84
1720811594,168:   -128  90  84
1720811594,168:    -76  90  84
1720811594,168:    -80  90  84
1720811594,168:   -138  90  84
1720811594,198:   -177  90  84
1720811594,198:   -146  90  84
1720811594,198:    -80  90  84
1720811594,198:    -55  90  84
1720811594,198:    -86  90  84
1720811594,198:   -111  90  84
1720811594,198:    -74  90  84
1720811594,198:     -5  90  84
1720811594,198:     15  90  84
1720811594,198:    -44  90  84
1720811594,198:   -122  90  84
1720811594,198:   -144  90  84
1720811594,198:   -111  90  84
1720811594,198:    -84  90  84
1720811594,198:   -104  90  84
1720811594,228:   -134  90  84
1720811594,228:   -116  90  84
1720811594,228:    -46  90  84
1720811594,228:     13  90  84
1720811594,228:     14  90  84
1720811594,228:    -19  90  84
1720811594,228:    -20  90  84
1720811594,228:     32  90  84
1720811594,228:     94  90  84
1720811594,228:    118  90  84
1720811594,228:    105  90  84
1720811594,228:     96  90  84
1720811594,228:    110  90  84
1720811594,228:    123  90  84
1720811594,228:    115  90  84
1720811594,258:     97  90  84
1720811594,258:     94  90  84
1720811594,258:    110  90  84
1720811594,258:    126  90  84
1720811594,258:    151  90  84
1720811594,258:    239  90  84
1720811594,258:    449  90  84
1720811594,258:    788  90  84
1720811594,288:   1238  90  84
1720811594,288:   1828  90  84
1720811594,288:   2603  90  84
1720811594,288:   3497  90  84
1720811594,288:   4292  90  84
1720811594,289:   4784  90  84
1720811594,289:   4996  90  84
1720811594,289:   5139  90  84
1720811594,289:   5306  90  84
1720811594,289:   5250  90  84
1720811594,289:   4569  90  84
1720811594,289:   3173  90  84
1720811594,289:   1482  90  84
1720811594,289:     95  90  84
1720811594,289:   -744  90  84
1720811594,289:  -1284  90  84
1720811594,289:  -1880  90  84
1720811594,289:  -2566  90  84
1720811594,289:  -3036  90  84
1720811594,289:  -3025  90  84
1720811594,289:  -2595  90  84
1720811594,289:  -2048  90  84
1720811594,318:  -1626  94  87
1720811594,318:  -1363  94  87
1720811594,318:  -1189  94  87
1720811594,318:  -1067  94  87
1720811594,318:  -1009  94  87
1720811594,318:   -988  94  87
1720811594,318:   -927  94  87
1720811594,318:   -788  94  87
1720811594,318:   -626  94  87
1720811594,318:   -538  94  87
1720811594,318:   -548  94  87
1720811594,318:   -581  94  87
1720811594,318:   -549  94  87
1720811594,318:   -450  94  87
1720811594,318:   -360  94  87
1720811594,348:   -345  94  87
1720811594,348:   -398  94  87
1720811594,348:   -454  94  87
1720811594,348:   -474  94  87
1720811594,348:   -471  94  87
1720811594,348:   -473  94  87
1720811594,348:   -464  94  87
1720811594,348:   -404  94  87
1720811594,348:   -299  94  87
1720811594,348:   -203  94  87
1720811594,348:   -171  94  87
1720811594,348:   -191  94  87
1720811594,348:   -212  94  87
1720811594,348:   -210  94  87
1720811594,348:   -208  94  87
1720811594,378:   -235  94  87
1720811594,378:   -265  94  87
1720811594,378:   -249  94  87
1720811594,378:   -179  94  87
1720811594,378:   -113  94  87
1720811594,378:   -105  94  87
1720811594,378:   -139  94  87
1720811594,378:   -152  94  87
1720811594,378:   -113  94  87
1720811594,378:    -63  94  87
1720811594,378:    -54  94  87
1720811594,378:    -81  94  87
1720811594,378:    -87  94  87
1720811594,378:    -46  94  87
1720811594,378:      8  94  87
1720811594,409:     23  94  87
1720811594,409:     -2  94  87
1720811594,409:    -20  94  87
1720811594,409:     -5  94  87
1720811594,409:     20  94  87
1720811594,409:     18  94  87
1720811594,409:      1  94  87
1720811594,409:     11  94  87
1720811594,409:     63  94  87
1720811594,409:    119  94  87
1720811594,409:    139  94  87
1720811594,409:    131  94  87
1720811594,409:    145  94  87
1720811594,409:    200  94  87
1720811594,409:    256  94  87
1720811594,441:    255  94  87
1720811594,441:    201  94  87
1720811594,441:    155  94  87
1720811594,441:    167  94  87
1720811594,441:    214  94  87
1720811594,441:    235  94  87
1720811594,441:    208  94  87
1720811594,441:    176  94  87
1720811594,441:    187  94  87
1720811594,441:    231  94  87
1720811594,441:    253  94  87
1720811594,441:    223  94  87
1720811594,441:    180  94  87
1720811594,441:    179  94  87
1720811594,441:    223  94  87
1720811594,473:    262  94  87
1720811594,473:    255  94  87
1720811594,473:    224  94  87
1720811594,473:    216  94  87
1720811594,473:    241  94  87
1720811594,473:    256  94  87
1720811594,473:    227  94  87
1720811594,473:    174  94  87
1720811594,473:    141  94  87
1720811594,473:    136  94  87
1720811594,473:    123  94  87
1720811594,473:     81  94  87
1720811594,473:     39  94  87
1720811594,473:     40  94  87
1720811594,473:     82  94  87
1720811594,505:    104  94  87
1720811594,505:     62  94  87
1720811594,505:    -11  94  87
1720811594,505:    -44  94  87
1720811594,505:    -11  94  87
1720811594,505:     38  94  87
1720811594,505:     38  94  87
1720811594,505:     -9  94  87
1720811594,505:    -45  94  87
1720811594,505:    -32  94  87
1720811594,505:      3  94  87
1720811594,505:      5  94  87
1720811594,505:    -34  94  87
1720811594,505:    -70  94  87
1720811594,505:    -65  94  87
1720811594,505:    -39  94  87
1720811594,505:    -34  94  87
1720811594,505:    -57  94  87
1720811594,505:    -71  94  87
1720811594,505:    -52  94  87
1720811594,505:    -22  94  87
1720811594,505:    -27  94  87
1720811594,505:    -75  94  87
1720811594,537:   -125  94  87
1720811594,537:   -137  94  87
1720811594,537:   -118  94  87
1720811594,537:   -104  94  87
1720811594,537:   -112  94  87
1720811594,537:   -124  94  87
1720811594,537:   -118  94  87
1720811594,569:   -104  94  87
1720811594,569:   -111  94  87
1720811594,569:   -147  94  87
1720811594,569:   -181  94  87
1720811594,569:   -183  94  87
1720811594,569:   -164  94  87
1720811594,569:   -161  94  87
1720811594,569:   -191  94  87
1720811594,569:   -225  94  87
1720811594,569:   -226  94  87
1720811594,569:   -193  94  87
1720811594,569:   -166  94  87
1720811594,569:   -174  94  87
1720811594,569:   -200  94  87
1720811594,569:   -204  94  87
1720811594,569:   -175  94  87
1720811594,569:   -140  94  87
1720811594,569:   -129  94  87
1720811594,569:   -132  94  87
1720811594,569:   -126  94  87
1720811594,569:   -106  94  87
1720811594,569:    -99  94  87
1720811594,569:   -124  94  87
1720811594,632:   -154  94  87
1720811594,632:   -150  94  87
1720811594,632:   -107  94  87
1720811594,632:    -67  94  87
1720811594,632:    -64  94  87
1720811594,632:    -88  94  87
1720811594,632:    -94  94  87
1720811596,175:    -66  94  87
1720811596,175:    -33  94  87
1720811596,175:    -33  94  87
1720811596,175:    -61  94  87
1720811596,175:    -77  94  87
1720811596,175:    -59  94  87
1720811596,175:    -25  94  87
1720811596,175:    -12  94  87
1720811596,175:    -21  94  87
1720811596,175:    -21  94  87
1720811596,175:      6  94  87
1720811596,175:     37  94  87
1720811596,175:     38  94  87
1720811596,175:     11  94  87
1720811596,175:     -4  94  87
1720811596,255:     19  94  87
1720811596,255:     60  94  87
1720811596,255:     76  94  87
1720811596,255:     13  94  87
1720811596,255:     -4  94  87
1720811596,255:    -35  94  87
1720811596,255:    -37  94  87
1720811596,255:     -1  94  87
1720811596,255:     30  94  87
1720811596,255:     18  94  87
1720811596,255:    -28  94  87
1720811596,255:    -61  94  87
1720811596,255:    -57  94  87
1720811596,255:    -36  94  87
1720811596,287:    -48  94  87
1720811596,287:    -15  94  87
1720811596,287:      6  94  87
1720811596,287:     -5  94  87
1720811596,287:    -24  94  87
1720811596,287:    -15  94  87
1720811596,319:     17  94  87
1720811596,319:     31  94  87
1720811596,319:      2  94  87
1720811596,319:    -38  94  87
1720811596,319:    -43  94  87
1720811596,319:    242  94  87
1720811596,319:    251  94  87
1720811596,319:    222  94  87
1720811596,319:    165  94  87
1720811596,319:    138  94  87
1720811596,319:    177  94  87
1720811596,319:    241  94  87
1720811596,319:    244  94  87
1720811596,319:    154  94  87
1720811596,319:     30  94  87
1720811596,319:    -38  94  87
1720811596,319:    -34  94  87
1720811596,319:    -29  94  87
1720811596,319:    -93  94  87
1720811596,319:   -205  94  87
1720811596,319:   -280  94  87
1720811596,319:   -270  94  87
1720811596,351:   -213  94  87
1720811596,351:   -179  94  87
1720811596,351:   -184  94  87
1720811596,351:   -183  94  87
1720811596,351:   -146  94  87
1720811596,351:   -102  94  87
1720811596,351:    -98  94  87
1720811596,351:   -138  94  87
1720811596,351:   -169  94  87
1720811596,351:   -156  94  87
1720811596,351:   -119  94  87
1720811596,351:   -107  94  87
1720811596,351:   -132  94  87
1720811596,351:   -154  94  87
1720811596,351:   -137  94  87
1720811596,351:    -98  94  87
1720811596,351:    -79  94  87
1720811596,351:    -95  94  87
1720811596,351:   -113  94  87
1720811596,351:   -100  94  87
1720811596,351:    -69  94  87
1720811596,351:    -59  94  87
1720811596,383:    -81  94  87
1720811596,383:   -100  94  87
1720811596,383:    -86  94  87
1720811596,383:    -52  94  87
1720811596,383:    -39  94  87
1720811596,383:    -61  94  87
1720811596,383:    -87  94  87
1720811596,383:    -76  94  87
1720811596,383:    -31  94  87
1720811596,383:      6  94  87
1720811596,383:     12  94  87
1720811596,383:     13  94  87
1720811596,383:     44  94  87
1720811596,383:     87  94  87
1720811596,383:     81  94  87
1720811596,383:      7  94  87
1720811596,383:    -83  94  87
1720811596,383:   -134  94  87
1720811596,383:   -170  94  87
1720811596,383:   -270  94  87
1720811596,383:   -455  94  87
1720811596,383:   -637  94  87
1720811596,383:   -683  94  87
1720811596,413:   -524  94  87
1720811596,413:   -167  94  87
1720811596,413:    405  94  87
1720811596,413:   1280  94  87
1720811596,413:   2537  94  87
1720811596,413:   4098  94  87
1720811596,413:   5715  94  87
1720811596,413:   7121  94  87
1720811596,413:   8207  94  87
1720811596,413:   9037  94  87
1720811596,413:   9649  94  87
1720811596,413:   9884  94  87
1720811596,413:   9431  94  87
1720811596,413:   8103  94  87
1720811596,413:   6098  94  87
1720811596,413:   3940  94  87
1720811596,413:   2117  94  87
1720811596,413:    755  94  87
1720811596,413:   -357  94  87
1720811596,413:  -1428  94  87
1720811596,413:  -2382  94  87
1720811596,413:  -2927  94  87
1720811596,443:  -2883 113  95
1720811596,443:  -2388 113  95
1720811596,443:  -1787 113  95
1720811596,443:  -1362 113  95
1720811596,443:  -1185 113  95
1720811596,443:  -1164 113  95
1720811596,443:  -1198 113  95
1720811596,443:  -1242 113  95
1720811596,443:  -1288 113  95
1720811596,443:  -1343 113  95
1720811596,443:  -1417 113  95
1720811596,443:  -1511 113  95
1720811596,443:  -1602 113  95
1720811596,443:  -1653 113  95
1720811596,443:  -1653 113  95
1720811596,443:  -1628 113  95
1720811596,443:  -1602 113  95
1720811596,443:  -1570 113  95
1720811596,443:  -1519 113  95
1720811596,443:  -1465 113  95
1720811596,443:  -1445 113  95
1720811596,443:  -1467 113  95
1720811596,443:  -1487 113  95
1720811596,475:  -1449 113  95
1720811596,475:  -1346 113  95
1720811596,475:  -1230 113  95
1720811596,475:  -1155 113  95
1720811596,475:  -1126 113  95
1720811596,475:  -1107 113  95
1720811596,475:  -1076 113  95
1720811596,475:  -1051 113  95
1720811596,475:  -1055 113  95
1720811596,475:  -1071 113  95
1720811596,475:  -1053 113  95
1720811596,475:   -981 113  95
1720811596,475:   -892 113  95
1720811596,475:   -837 113  95
1720811596,475:   -828 113  95
1720811596,597:   -828 113  95
1720811596,597:   -804 113  95
1720811596,597:   -765 113  95
1720811596,597:   -745 113  95
1720811596,597:   -751 113  95
1720811596,597:   -753 113  95
1720811596,597:   -725 113  95
1720811596,597:   -679 113  95
1720811596,597:   -646 113  95
1720811596,597:   -639 113  95
1720811596,597:   -632 113  95
1720811596,597:   -604 113  95
1720811596,597:   -566 113  95
1720811596,597:   -546 113  95
1720811596,597:   -552 113  95
1720811596,597:   -555 113  95
1720811596,597:   -528 113  95
1720811596,597:   -482 113  95
1720811596,597:   -446 113  95
1720811596,597:   -430 113  95
1720811596,597:   -416 113  95
1720811596,597:   -385 113  95
1720811596,627:   -348 113  95
1720811596,627:   -333 113  95
1720811596,627:   -346 113  95
1720811596,627:   -359 113  95
1720811596,627:   -347 113  95
1720811596,627:   -317 113  95
1720811596,627:   -301 113  95
1720811596,627:   -309 113  95
1720811596,627:   -316 113  95
1720811596,627:   -293 113  95
1720811596,627:   -245 113  95
1720811596,627:   -206 113  95
1720811596,627:   -199 113  95
1720811596,627:   -207 113  95
1720811596,627:   -201 113  95
1720811596,627:   -175 113  95
1720811596,627:   -153 113  95
1720811596,627:   -155 113  95
1720811596,627:   -167 113  95
1720811596,627:   -161 113  95
1720811596,627:   -133 113  95
1720811596,627:   -113 113  95
1720811596,627:   -127 113  95
1720811596,657:   -163 113  95
1720811596,657:   -182 113  95
1720811596,657:   -169 113  95
1720811596,657:   -142 113  95
1720811596,657:   -134 113  95
1720811596,657:   -148 113  95
1720811596,657:   -163 113  95
1720811596,657:   -165 113  95
1720811596,657:   -162 113  95
1720811596,657:   -173 113  95
1720811596,657:   -194 113  95
1720811596,657:   -206 113  95
1720811596,657:   -198 113  95
1720811596,657:   -186 113  95
1720811596,657:   -192 113  95
1720811596,657:   -211 113  95
1720811596,657:   -222 113  95
1720811596,657:   -211 113  95
1720811596,657:   -195 113  95
1720811596,657:   -195 113  95
1720811596,657:   -211 113  95
1720811596,657:   -216 113  95
1720811596,687:   -196 113  95
1720811596,687:   -166 113  95
1720811596,687:   -152 113  95
1720811596,687:   -152 113  95
1720811596,687:   -142 113  95
1720811596,687:   -112 113  95
1720811596,687:    -85 113  95
1720811596,687:    -95 113  95
1720811596,687:   -137 113  95
1720811596,687:   -170 113  95
1720811596,687:   -164 113  95
1720811596,687:   -132 113  95
1720811596,687:   -113 113  95
1720811596,687:   -119 113  95
1720811596,687:   -119 113  95
1720811596,687:    -87 113  95
1720811596,687:    -38 113  95
1720811596,687:    -13 113  95
1720811596,687:    -27 113  95
1720811596,687:    -50 113  95
1720811596,687:    -43 113  95
1720811596,687:    -12 113  95
1720811596,687:      7 113  95
1720811596,717:     -5 113  95
1720811596,717:    -24 113  95
1720811596,717:    -18 113  95
1720811596,717:     13 113  95
1720811596,717:     35 113  95
1720811596,717:     26 113  95
1720811596,717:      6 113  95
1720811596,717:      9 113  95
1720811596,717:     38 113  95
1720811596,717:     63 113  95
1720811596,717:     62 113  95
1720811596,717:     53 113  95
1720811596,717:     68 113  95
1720811596,717:    113 113  95
1720811596,717:    154 113  95
1720811596,717:    160 113  95
1720811596,717:    137 113  95
1720811596,717:    116 113  95
1720811596,717:    113 113  95
1720811596,717:    113 113  95
1720811596,717:     96 113  95
1720811596,717:     65 113  95
1720811596,747:     45 113  95
1720811596,747:     46 113  95
1720811596,747:     55 113  95
1720811596,747:     49 113  95
1720811596,747:     31 113  95
1720811596,747:     24 113  95
1720811596,747:     42 113  95
1720811596,747:     72 113  95
1720811596,747:     88 113  95
1720811596,747:     88 113  95
1720811596,747:     91 113  95
1720811596,747:    109 113  95
1720811596,747:    128 113  95
1720811596,747:    128 113  95
1720811596,747:    114 113  95
1720811596,747:    114 113  95
1720811596,747:    138 113  95
1720811596,747:    160 113  95
1720811596,747:    149 113  95
1720811596,747:    111 113  95
1720811596,747:     83 113  95
1720811596,747:     85 113  95
1720811596,747:     93 113  95
1720811596,779:     72 113  95
1720811596,779:     31 113  95
1720811596,779:     16 113  95
1720811596,779:     47 113  95
1720811596,779:     91 113  95
1720811596,779:     97 113  95
1720811596,779:     66 113  95
1720811596,779:     45 113  95
1720811596,779:     64 113  95
1720811596,779:     96 113  95
1720811596,779:     88 113  95
1720811596,779:     31 113  95
1720811596,779:    -29 113  95
1720811596,779:    -44 113  95
1720811596,779:    -18 113  95
1720811596,779:      8 113  95
1720811596,779:     14 113  95
1720811596,779:     25 113  95
1720811596,779:     69 113  95
1720811596,779:    128 113  95
1720811596,779:    155 113  95
1720811596,779:    127 113  95
1720811596,811:     79 113  95
1720811596,811:     59 113  95
1720811596,811:     74 113  95
1720811596,811:     82 113  95
1720811596,811:     48 113  95
1720811596,811:     -5 113  95
1720811596,811:    -20 113  95
1720811596,811:     21 113  95
1720811596,811:     75 113  95
1720811596,811:     88 113  95
1720811596,811:     62 113  95
1720811596,811:     41 113  95
1720811596,811:     57 113  95
1720811596,811:     88 113  95
1720811596,811:     96 113  95
1720811596,811:     80 113  95
1720811596,811:     74 113  95
1720811596,811:     95 113  95
1720811596,811:    116 113  95
1720811596,811:    107 113  95
1720811596,811:     82 113  95
1720811596,811:     87 113  95
1720811596,811:    127 113  95
1720811596,842:    154 113  95
1720811596,842:    125 113  95
1720811596,842:     60 113  95
1720811596,842:     26 113  95
1720811596,842:     55 113  95
1720811596,842:     96 113  95
1720811596,842:     76 113  95
1720811596,842:    -10 113  95
1720811596,842:    -93 113  95
1720811596,842:   -108 113  95
1720811596,842:    -64 113  95
1720811596,842:    -24 113  95
1720811596,842:    -21 113  95
1720811596,842:    -28 113  95
1720811596,842:     -7 113  95
1720811596,842:     38 113  95
1720811596,842:     65 113  95
1720811596,842:     64 113  95
1720811596,842:     71 113  95
1720811596,842:    109 113  95
1720811596,842:    146 113  95
1720811596,842:    130 113  95
1720811596,872:     69 113  95
1720811596,872:     29 113  95
1720811596,872:     56 113  95
1720811596,872:    105 113  95
1720811596,872:    101 113  95
1720811596,872:     35 113  95
1720811596,872:    -15 113  95
1720811596,872:     10 113  95
1720811596,872:     75 113  95
1720811596,872:    103 113  95
1720811596,872:     88 113  95
1720811596,872:    104 113  95
1720811596,872:    189 113  95
1720811596,872:    267 113  95
1720811596,872:    228 113  95
1720811596,872:     69 113  95
1720811596,872:    -82 113  95
1720811596,872:   -116 113  95
1720811596,872:    -71 113  95
1720811596,872:    -79 113  95
1720811596,872:   -199 113  95
1720811596,872:   -339 113  95
1720811596,872:   -364 113  95
1720811596,903:   -253 113  95
1720811596,903:   -113 113  95
1720811596,903:    -55 113  95
1720811596,903:    -78 113  95
1720811596,903:    -99 113  95
1720811596,903:    -68 113  95
1720811596,903:    -18 113  95
1720811596,903:     -2 113  95
1720811596,903:    -19 113  95
1720811596,903:    -18 113  95
1720811596,903:     24 113  95
1720811596,903:     65 113  95
1720811596,903:     54 113  95
1720811596,903:      2 113  95
1720811596,903:    -22 113  95
1720811596,903:     16 113  95
1720811596,903:     72 113  95
1720811596,903:     78 113  95
1720811596,903:     32 113  95
1720811596,903:      4 113  95
1720811596,903:     44 113  95
1720811596,903:    118 113  95
1720811596,935:    151 113  95
1720811596,935:    124 113  95
1720811596,935:     99 113  95
1720811596,935:    133 113  95
1720811596,935:    206 113  95
1720811596,935:    246 113  95
1720811596,935:    223 113  95
1720811596,935:    188 113  95
1720811596,935:    196 113  95
1720811596,935:    236 113  95
1720811596,935:    246 113  95
1720811596,935:    197 113  95
1720811596,935:    135 113  95
1720811596,935:    120 113  95
1720811596,935:    147 113  95
1720811596,935:    160 113  95
1720811596,935:    123 113  95
1720811596,935:     69 113  95
1720811596,935:     52 113  95
1720811596,935:     75 113  95
1720811596,935:     89 113  95
1720811596,935:     53 113  95
1720811596,935:    -10 113  95
1720811596,968:    -47 113  95
1720811596,968:    -43 113  95
1720811596,968:    -36 113  95
1720811596,968:    -61 113  95
1720811596,968:   -102 113  95
1720811596,968:   -109 113  95
1720811596,968:    -72 113  95
1720811596,968:    -33 113  95
1720811596,968:    -38 113  95
1720811596,968:    -76 113  95
1720811596,968:    -95 113  95
1720811596,968:    -70 113  95
1720811596,968:    -32 113  95
1720811596,968:    -26 113  95
1720811596,968:    -51 113  95
1720811596,998:    -63 113  95
1720811596,998:    -36 113  95
1720811596,998:     -2 113  95
1720811596,998:     -6 113  95
1720811596,998:    -45 113  95
1720811596,998:    -67 113  95
1720811596,998:    -43 113  95
1720811596,998:     -1 113  95
1720811596,998:      8 113  95
1720811596,998:    -17 113  95
1720811596,998:    -28 113  95
1720811596,998:      3 113  95
1720811596,998:     46 113  95
1720811596,998:     41 113  95
1720811596,998:    -14 113  95
1720811597,030:    -62 113  95
1720811597,030:    -57 113  95
1720811597,030:    -19 113  95
1720811597,030:     -4 113  95
1720811597,030:    -24 113  95
1720811597,030:    -29 113  95
1720811597,030:     21 113  95
1720811597,030:    103 113  95
1720811597,030:    152 113  95
1720811597,030:    129 113  95
1720811597,030:     68 113  95
1720811597,030:     26 113  95
1720811597,030:     22 113  95
1720811597,030:     17 113  95
1720811597,030:    -40 113  95
1720811597,061:   -158 113  95
1720811597,061:   -293 113  95
1720811597,061:   -388 113  95
1720811597,061:   -404 113  95
1720811597,061:   -305 113  95
1720811597,061:    -45 113  95
1720811597,061:    448 113  95
1720811597,061:   1254 113  95
1720811597,061:   2399 113  95
1720811597,061:   3793 113  95
1720811597,061:   5227 113  95
1720811597,061:   6470 113  95
1720811597,061:   7412 113  95
1720811597,061:   8101 113  95
1720811597,061:   8602 113  95
1720811597,061:   8810 113  95
1720811597,061:   8439 113  95
1720811597,061:   7273 113  95
1720811597,061:   5458 113  95
1720811597,061:   3493 113  95
1720811597,061:   1873 113  95
1720811597,061:    728 113  95
1720811597,090:   -181  81  94
1720811597,090:  -1110  81  94
1720811597,090:  -2008  81  94
1720811597,090:  -2567  81  94
1720811597,090:  -2563  81  94
1720811597,090:  -2107  81  94
1720811597,090:  -1548  81  94
1720811597,090:  -1184  81  94
1720811597,090:  -1071  81  94
1720811597,090:  -1080  81  94
1720811597,090:  -1089  81  94
1720811597,090:  -1084  81  94
1720811597,090:  -1103  81  94
1720811597,090:  -1153  81  94
1720811597,090:  -1196  81  94
1720811597,121:  -1214  81  94
1720811597,121:  -1230  81  94
1720811597,121:  -1274  81  94
1720811597,121:  -1332  81  94
1720811597,121:  -1357  81  94
1720811597,121:  -1320  81  94
1720811597,121:  -1259  81  94
1720811597,121:  -1240  81  94
1720811597,121:  -1277  81  94
1720811597,121:  -1317  81  94
1720811597,121:  -1304  81  94
1720811597,121:  -1243  81  94
1720811597,121:  -1181  81  94
1720811597,153:  -1139  81  94
1720811597,153:  -1087  81  94
1720811597,153:  -1002  81  94
1720811597,153:   -915  81  94
1720811597,153:   -887  81  94
1720811597,153:   -929  81  94
1720811597,153:   -984  81  94
1720811597,153:   -986  81  94
1720811597,153:   -934  81  94
1720811597,153:   -877  81  94
1720811597,153:   -846  81  94
1720811597,153:   -822  81  94
1720811597,153:   -775  81  94
1720811597,153:   -716  81  94
1720811597,184:   -689  81  94
1720811597,184:   -708  81  94
1720811597,184:   -733  81  94
1720811597,184:   -721  81  94
1720811597,184:   -673  81  94
1720811597,184:   -635  81  94
1720811597,184:   -630  81  94
1720811597,184:   -631  81  94
1720811597,184:   -599  81  94
1720811597,184:   -540  81  94
1720811597,184:   -502  81  94
1720811597,184:   -515  81  94
1720811597,184:   -549  81  94
1720811597,184:   -548  81  94
1720811597,184:   -499  81  94
1720811597,216:   -442  81  94
1720811597,216:   -420  81  94
1720811597,216:   -421  81  94
1720811597,216:   -402  81  94
1720811597,216:   -348  81  94
1720811597,216:   -296  81  94
1720811597,216:   -288  81  94
1720811597,216:   -313  81  94
1720811597,216:   -324  81  94
1720811597,216:   -297  81  94
1720811597,216:   -261  81  94
1720811597,216:   -259  81  94
1720811597,216:   -288  81  94
1720811597,216:   -303  81  94
1720811597,216:   -275  81  94
1720811597,216:   -233  81  94
1720811597,216:   -222  81  94
1720811597,216:   -246  81  94
1720811597,216:   -263  81  94
1720811597,216:   -235  81  94
1720811597,216:   -182  81  94
1720811597,216:   -151  81  94
1720811597,216:   -154  81  94
1720811597,248:   -160  81  94
1720811597,248:   -139  81  94
1720811597,248:   -104  81  94
1720811597,248:    -95  81  94
1720811597,248:   -126  81  94
1720811597,248:   -161  81  94
1720811597,248:   -163  81  94
1720811597,248:   -135  81  94
1720811597,248:   -117  81  94
1720811597,248:   -126  81  94
1720811597,248:   -143  81  94
1720811597,248:   -141  81  94
1720811597,248:   -124  81  94
1720811597,248:   -123  81  94
1720811597,248:   -154  81  94
1720811597,280:   -193  81  94
1720811597,280:   -207  81  94
1720811597,280:   -199  81  94
1720811597,280:   -201  81  94
1720811597,280:   -229  81  94
1720811597,280:   -252  81  94
1720811597,280:   -235  81  94
1720811597,280:   -187  81  94
1720811597,280:   -166  81  94
1720811597,280:   -207  81  94
1720811597,280:   -262  81  94
1720811597,280:   -252  81  94
1720811597,280:   -171  81  94
1720811597,280:   -100  81  94
1720811597,280:   -110  81  94
1720811597,312:   -168  81  94
1720811597,312:   -176  81  94
1720811597,312:    -99  81  94
1720811597,312:    -21  81  94
1720811597,312:    -35  81  94
1720811597,312:   -108  81  94
1720811597,312:   -132  81  94
1720811597,312:    -71  81  94
1720811597,312:    -22  81  94
1720811597,312:    -79  81  94
1720811597,312:   -192  81  94
1720811597,312:   -213  81  94
1720811597,312:    -91  81  94
1720811597,312:     48  81  94
1720811597,312:     55  81  94
1720811597,343:    -58  81  94
1720811597,343:   -130  81  94
1720811597,343:    -55  81  94
1720811597,343:    100  81  94
1720811597,343:    186  81  94
1720811597,343:    152  81  94
1720811597,343:     87  81  94
1720811597,343:     84  81  94
1720811597,343:    137  81  94
1720811597,343:    167  81  94
1720811597,343:    140  81  94
1720811597,343:     93  81  94
1720811597,343:     76  81  94
1720811597,343:     84  81  94
1720811597,343:     82  81  94
1720811597,373:     66  81  94
1720811597,373:     70  81  94
1720811597,373:    110  81  94
1720811597,373:    150  81  94
1720811597,373:    161  81  94
1720811597,373:    144  81  94
1720811597,373:    134  81  94
1720811597,373:    148  81  94
1720811597,373:    167  81  94
1720811597,373:    170  81  94
1720811597,373:    164  81  94
1720811597,373:    166  81  94
1720811597,373:    174  81  94
1720811597,373:    169  81  94
1720811597,373:    150  81  94
1720811597,373:    131  81  94
1720811597,373:    116  81  94
1720811597,373:     82  81  94
1720811597,373:     18  81  94
1720811597,373:    -38  81  94
1720811597,373:    -27  81  94
1720811597,373:     53  81  94
1720811597,403:    133  81  94
1720811597,403:    140  81  94
1720811597,403:     82  81  94
1720811597,403:     37  81  94
1720811597,403:     71  81  94
1720811597,403:    163  81  94
1720811597,403:    235  81  94
1720811597,403:    236  81  94
1720811597,433:    187  81  94
1720811597,433:    150  81  94
1720811597,433:    165  81  94
1720811597,433:    214  81  94
1720811597,433:    245  81  94
1720811597,433:    224  81  94
1720811597,433:    172  81  94
1720811597,433:    145  81  94
1720811597,433:    166  81  94
1720811597,433:    208  81  94
1720811597,433:    224  81  94
1720811597,433:    202  81  94
1720811597,433:    181  81  94
1720811597,433:    197  81  94
1720811597,433:    226  81  94
1720811597,463:    221  81  94
1720811597,463:    180  81  94
1720811597,463:    146  81  94
1720811597,463:    158  81  94
1720811597,463:    196  81  94
1720811597,463:    209  81  94
1720811597,463:    185  81  94
1720811597,463:    161  81  94
1720811597,463:    171  81  94
1720811597,463:    196  81  94
1720811597,463:    190  81  94
1720811597,463:    145  81  94
1720811597,463:    105  81  94
1720811597,463:    111  81  94
1720811597,463:    145  81  94
1720811597,494:    158  81  94
1720811597,494:    130  81  94
1720811597,494:     98  81  94
1720811597,494:    101  81  94
1720811597,494:    128  81  94
1720811597,494:    132  81  94
1720811597,494:     95  81  94
1720811597,494:     51  81  94
1720811597,494:     45  81  94
1720811597,494:     72  81  94
1720811597,494:     88  81  94
1720811597,494:     66  81  94
1720811597,494:     32  81  94
1720811597,494:     27  81  94
1720811597,494:     55  81  94
1720811597,526:     73  81  94
1720811597,526:     51  81  94
1720811597,526:      8  81  94
1720811597,526:     -8  81  94
1720811597,526:     14  81  94
1720811597,526:     39  81  94
1720811597,526:     34  81  94
1720811597,526:      8  81  94
1720811597,526:     -2  81  94
1720811597,526:     14  81  94
1720811597,526:     25  81  94
1720811597,526:      1  81  94
1720811597,526:    -42  81  94
1720811597,526:    -61  81  94
1720811597,526:    -38  81  94
1720811597,526:     -9  81  94
1720811597,526:    -13  81  94
1720811597,526:    -42  81  94
1720811597,526:    -53  81  94
1720811597,526:    -29  81  94
1720811597,526:     -5  81  94
1720811597,526:    -23  81  94
1720811597,558:    -73  81  94
1720811597,558:   -104  81  94
1720811597,558:    -87  81  94
1720811597,558:    -52  81  94
1720811597,558:    -45  81  94
1720811597,558:    -70  81  94
1720811597,558:    -85  81  94
1720811597,558:    -60  81  94
1720811597,558:    -21  81  94
1720811597,558:    -17  81  94
1720811597,558:    -53  81  94
1720811597,558:    -85  81  94
1720811597,558:    -77  81  94
1720811597,558:    -48  81  94
1720811597,558:    -42  81  94
1720811597,588:    -67  81  94
1720811597,588:    -87  81  94
1720811597,588:    -71  81  94
1720811597,588:    -35  81  94
1720811597,588:    -27  81  94
1720811597,588:    -59  81  94
1720811597,588:    -91  81  94
1720811597,588:    -83  81  94
1720811597,618:    -44  81  94
1720811597,618:    -20  81  94
1720811597,618:    -36  81  94
1720811597,618:    -60  81  94
1720811597,618:    -53  81  94
1720811597,618:    -14  81  94
1720811597,618:     12  81  94
1720811597,618:     -2  81  94
1720811597,618:    -34  81  94
1720811597,618:    -42  81  94
1720811597,618:    -17  81  94
1720811597,618:      8  81  94
1720811597,618:      0  81  94
1720811597,618:    -28  81  94
1720811597,618:    -41  81  94
1720811597,618:    -22  81  94
1720811597,618:      3  81  94
1720811597,618:      7  81  94
1720811597,618:      1  81  94
1720811597,618:     15  81  94
1720811597,618:     60  81  94
1720811597,618:    107  81  94
1720811597,648:    128  81  94
1720811597,648:    130  81  94
1720811597,648:    142  81  94
1720811597,648:    172  81  94
1720811597,648:    191  81  94
1720811597,648:    171  81  94
1720811597,648:    125  81  94
1720811597,648:     97  81  94
1720811597,648:    108  81  94
1720811597,648:    130  81  94
1720811597,648:    126  81  94
1720811597,648:     98  81  94
1720811597,648:     82  81  94
1720811597,648:     96  81  94
1720811597,648:    110  81  94
1720811597,678:     81  81  94
1720811597,678:     12  81  94
1720811597,678:    -48  81  94
1720811597,678:    -63  81  94
1720811597,678:    -54  81  94
1720811597,678:    -69  81  94
1720811597,678:   -115  81  94
1720811597,678:   -150  81  94
1720811597,678:   -138  81  94
1720811597,678:   -102  81  94
1720811597,678:    -93  81  94
1720811597,678:   -127  81  94
1720811597,678:   -164  81  94
1720811597,678:   -157  81  94
1720811597,678:   -116  81  94
