timestamp: ADC HeartRate4sAverage HeartRate30sAverage
1720780443,370:   -411  59  70
1720780443,370:   -349  59  70
1720780443,370:    333  59  70
1720780443,370:    706  59  70
1720780443,370:    228  59  70
1720780443,370:   -510  59  70
1720780443,370:   -562  59  70
1720780443,370:    112  59  70
1720780443,370:    609  59  70
1720780443,370:    292  59  70
1720780443,370:   -367  59  70
1720780443,370:   -430  59  70
1720780443,370:    217  59  70
1720780443,370:    717  59  70
1720780443,370:    378  59  70
1720780443,400:   -382  59  70
1720780443,400:   -579  59  70
1720780443,400:     21  59  70
1720780443,400:    609  59  70
1720780443,400:    413  59  70
1720780443,400:   -273  59  70
1720780443,400:   -484  59  70
1720780443,400:     88  59  70
1720780443,400:    689  59  70
1720780443,400:    501  59  70
1720780443,400:   -254  59  70
1720780443,400:   -589  59  70
1720780443,400:    -80  59  70
1720780443,400:    587  59  70
1720780443,400:    537  59  70
1720780443,431:   -128  59  70
1720780443,431:   -471  59  70
1720780443,431:     -4  59  70
1720780443,431:    654  59  70
1720780443,431:    600  59  70
1720780443,431:   -140  59  70
1720780443,431:   -618  59  70
1720780443,431:   -237  59  70
1720780443,431:    474  59  70
1720780443,431:    572  59  70
1720780443,431:    -44  59  70
1720780443,431:   -501  59  70
1720780443,431:   -150  59  70
1720780443,431:    556  59  70
1720780443,431:    674  59  70
1720780443,431:     20  59  70
1720780443,431:   -552  59  70
1720780443,431:   -304  59  70
1720780443,431:    410  59  70
1720780443,431:    637  59  70
1720780443,431:     90  59  70
1720780443,431:   -465  59  70
1720780443,431:   -255  59  70
1720780443,463:    441  59  70
1720780443,463:    675  59  70
1720780443,463:     89  59  70
1720780443,463:   -575  59  70
1720780443,463:   -462  59  70
1720780443,463:    254  59  70
1720780443,463:    623  59  70
1720780443,463:    178  59  70
1720780443,463:   -441  59  70
1720780443,463:   -362  59  70
1720780443,463:    327  59  70
1720780443,463:    702  59  70
1720780443,463:    229  59  70
1720780443,463:   -493  59  70
1720780443,463:   -528  59  70
1720780443,494:    148  59  70
1720780443,494:    628  59  70
1720780443,494:    285  59  70
1720780443,494:   -391  59  70
1720780443,494:   -455  59  70
1720780443,494:    204  59  70
1720780443,494:    715  59  70
1720780443,494:    379  59  70
1720780443,494:   -384  59  70
1720780443,494:   -580  59  70
1720780443,494:     29  59  70
1720780443,494:    631  59  70
1720780443,494:    448  59  70
1720780443,494:   -230  59  70
1720780443,494:   -443  59  70
1720780443,526:    119  59  70
1720780443,526:    709  59  70
1720780443,526:    513  59  70
1720780443,526:   -244  59  70
1720780443,526:   -583  59  70
1720780443,526:    -79  59  70
1720780443,526:    583  59  70
1720780443,526:    533  59  70
1720780443,526:   -129  59  70
1720780443,526:   -473  59  70
1720780443,526:    -10  59  70
1720780443,526:    643  59  70
1720780443,557:    594  59  70
1720780443,557:   -130  59  70
1720780443,557:   -594  59  70
1720780443,557:   -208  59  70
1720780443,557:    493  59  70
1720780443,557:    577  59  70
1720780443,557:    -46  59  70
1720780443,557:   -499  59  70
1720780443,557:   -140  59  70
1720780443,557:    565  59  70
1720780443,557:    665  59  70
1720780443,557:    -10  59  70
1720780443,557:   -590  59  70
1720780443,557:   -330  59  70
1720780443,557:    408  59  70
1720780443,588:    647  59  70
1720780443,588:     95  59  70
1720780443,588:   -467  59  70
1720780443,588:   -253  59  70
1720780443,588:    457  59  70
1720780443,588:    703  59  70
1720780443,588:    116  59  70
1720780443,588:   -552  59  70
1720780443,588:   -441  59  70
1720780443,588:    280  59  70
1720780443,588:    651  59  70
1720780443,588:    204  59  70
1720780443,588:   -416  59  70
1720780443,588:   -330  59  70
1720780443,588:    369  59  70
1720780443,620:    748  59  70
1720780443,620:    273  59  70
1720780443,620:   -452  59  70
1720780443,620:   -487  59  70
1720780443,620:    192  59  70
1720780443,620:    677  59  70
1720780443,620:    342  59  70
1720780443,620:   -323  59  70
1720780443,620:   -377  59  70
1720780443,620:    279  59  70
1720780443,620:    775  59  70
1720780443,620:    422  59  70
1720780443,620:   -348  59  70
1720780443,620:   -543  59  70
1720780443,620:     63  59  70
1720780443,620:    648  59  70
1720780443,620:    441  59  70
1720780443,620:   -252  59  70
1720780443,620:   -464  59  70
1720780443,620:    113  59  70
1720780443,620:    714  59  70
1720780443,620:    522  59  70
1720780443,620:   -236  59  70
1720780443,652:   -571  59  70
1720780443,652:    -66  59  70
1720780443,652:    591  59  70
1720780443,652:    529  59  70
1720780443,652:   -145  59  70
1720780443,652:   -494  59  70
1720780443,652:    -34  59  70
1720780443,652:    612  59  70
1720780443,652:    553  59  70
1720780443,652:   -178  59  70
1720780443,652:   -636  59  70
1720780443,652:   -234  59  70
1720780443,652:    486  59  70
1720780443,652:    585  59  70
1720780443,652:    -29  59  70
1720780443,683:   -479  59  70
1720780443,683:   -122  59  70
1720780443,683:    578  59  70
1720780443,683:    678  59  70
1720780443,683:      7  59  70
1720780443,683:   -568  59  70
1720780443,683:   -311  59  70
1720780443,683:    414  59  70
1720780443,683:    639  59  70
1720780443,683:     82  59  70
1720780443,683:   -473  59  70
1720780443,683:   -246  59  70
1720780443,683:    474  59  70
1720780443,683:    715  59  70
1720780443,683:    114  59  70
1720780443,714:   -571  59  70
1720780443,714:   -462  59  70
1720780443,714:    267  59  70
1720780443,714:    643  59  70
1720780443,714:    185  59  70
1720780443,714:   -455  59  70
1720780443,714:   -376  59  70
1720780443,714:    337  59  70
1720780443,714:    737  59  70
1720780443,714:    266  59  70
1720780443,714:   -477  59  70
1720780443,714:   -527  59  70
1720780443,714:    159  59  70
1720780443,714:    663  59  70
1720780443,714:    330  59  70
1720780443,745:   -357  59  70
1720780443,745:   -438  59  70
1720780443,745:    213  59  70
1720780443,745:    724  59  70
1720780443,745:    385  59  70
1720780443,745:   -388  59  70
1720780443,745:   -591  59  70
1720780443,745:     17  59  70
1720780443,745:    618  59  70
1720780443,745:    421  59  70
1720780443,745:   -279  59  70
1720780443,745:   -504  59  70
1720780443,745:     70  59  70
1720780443,745:    680  59  70
1720780443,745:    490  59  70
1720780443,776:   -285  59  70
1720780443,776:   -644  59  70
1720780443,776:   -141  59  70
1720780443,776:    540  59  70
1720780443,776:    505  59  70
1720780443,776:   -163  59  70
1720780443,776:   -522  59  70
1720780443,776:    -64  59  70
1720780443,776:    602  59  70
1720780443,776:    564  59  70
1720780443,776:   -166  59  70
1720780443,776:   -644  59  70
1720780443,776:   -255  59  70
1720780443,776:    477  59  70
1720780443,776:    598  59  70
1720780443,776:     -9  59  70
1720780443,776:   -470  59  70
1720780443,776:   -119  59  70
1720780443,776:    597  59  70
1720780443,776:    715  59  70
1720780443,776:     42  59  70
1720780443,776:   -556  59  70
1720780443,807:   -313  59  70
1720780443,807:    425  59  70
1720780443,807:    679  59  70
1720780443,807:    139  59  70
1720780443,807:   -421  59  70
1720780443,807:   -199  59  70
1720780443,807:    533  59  70
1720780443,807:    799  59  70
1720780443,807:    211  59  70
1720780443,807:   -479  59  70
1720780443,807:   -383  59  70
1720780443,807:    343  59  70
1720780443,807:    725  59  70
1720780443,807:    268  59  70
1720780443,807:   -381  59  70
1720780443,839:   -317  59  70
1720780443,839:    389  59  70
1720780443,839:    790  59  70
1720780443,839:    322  59  70
1720780443,839:   -421  59  70
1720780443,839:   -477  59  70
1720780443,839:    198  59  70
1720780443,839:    694  59  70
1720780443,839:    362  59  70
1720780443,839:   -322  59  70
1720780443,839:   -404  59  70
1720780443,839:    233  59  70
1720780443,839:    727  59  70
1720780443,839:    382  59  70
1720780443,839:   -381  59  70
1720780443,870:   -567  59  70
1720780443,870:     51  59  70
1720780443,870:    653  59  70
1720780443,870:    459  59  70
1720780443,870:   -230  59  70
1720780443,870:   -442  59  70
1720780443,870:    137  59  70
1720780443,870:    750  59  70
1720780443,870:    577  59  70
1720780443,870:   -153  59  70
1720780443,870:   -451  59  70
1720780443,870:     90  59  70
1720780443,870:    740  59  70
1720780443,870:    587  59  70
1720780443,870:   -271  59  70
1720780443,901:   -863  59  70
1720780443,901:   -670  59  70
1720780443,901:   -297  59  70
1720780443,901:   -615  59  70
1720780443,901:  -1536  59  70
1720780443,901:  -2030  59  70
1720780443,901:  -1450  59  70
1720780443,901:   -319  59  70
1720780443,901:    430  59  70
1720780443,901:    735  59  70
1720780443,901:   1493  59  70
1720780443,901:   3288  59  70
1720780443,901:   5508  59  70
1720780443,901:   7067  59  70
1720780443,901:   7749  59  70
1720780443,933:   8444  57  64
1720780443,933:   9872  57  64
1720780443,933:  11550  57  64
1720780443,933:  12361  57  64
1720780443,933:  11955  57  64
1720780443,933:  11149  57  64
1720780443,933:  10763  57  64
1720780443,933:  10476  57  64
1720780443,933:   9276  57  64
1720780443,933:   6878  57  64
1720780443,933:   4276  57  64
1720780443,933:   2616  57  64
1720780443,933:   1862  57  64
1720780443,933:   1004  57  64
1720780443,933:   -531  57  64
1720780443,933:  -2078  57  64
1720780443,933:  -2613  57  64
1720780443,933:  -2109  57  64
1720780443,933:  -1567  57  64
1720780443,933:  -1757  57  64
1720780443,933:  -2314  57  64
1720780443,933:  -2378  57  64
1720780443,933:  -1852  57  64
1720780443,964:  -1528  57  64
1720780443,964:  -1990  57  64
1720780443,964:  -2781  57  64
1720780443,964:  -2992  57  64
1720780443,964:  -2503  57  64
1720780443,964:  -2123  57  64
1720780443,964:  -2501  57  64
1720780443,995:  -3210  57  64
1720780443,995:  -3298  57  64
1720780443,995:  -2568  57  64
1720780443,995:  -1853  57  64
1720780443,995:  -1938  57  64
1720780443,995:  -2557  57  64
1720780443,995:  -2779  57  64
1720780443,995:  -2282  57  64
1720780443,995:  -1756  57  64
1720780443,995:  -1941  57  64
1720780443,995:  -2597  57  64
1720780443,995:  -2788  57  64
1720780443,995:  -2149  57  64
1720780443,995:  -1391  57  64
1720780443,995:  -1377  57  64
1720780444,026:  -1999  57  64
1720780444,026:  -2327  57  64
1720780444,026:  -1871  57  64
1720780444,026:  -1213  57  64
1720780444,026:  -1215  57  64
1720780444,026:  -1850  57  64
1720780444,026:  -2214  57  64
1720780444,026:  -1750  57  64
1720780444,026:   -993  57  64
1720780444,026:   -859  57  64
1720780444,026:  -1436  57  64
1720780444,026:  -1863  57  64
1720780444,026:  -1501  57  64
1720780444,026:   -792  57  64
1720780444,026:   -654  57  64
1720780444,057:  -1259  57  64
1720780444,057:  -1775  57  64
1720780444,057:  -1484  57  64
1720780444,057:   -737  57  64
1720780444,057:   -472  57  64
1720780444,057:   -970  57  64
1720780444,057:  -1478  57  64
1720780444,057:  -1234  57  64
1720780444,057:   -507  57  64
1720780444,057:   -230  57  64
1720780444,057:   -761  57  64
1720780444,057:  -1382  57  64
1720780444,057:  -1254  57  64
1720780444,057:   -535  57  64
1720780444,057:   -150  57  64
1720780444,057:   -560  57  64
1720780444,057:  -1144  57  64
1720780444,057:  -1043  57  64
1720780444,057:   -339  57  64
1720780444,057:     62  57  64
1720780444,057:   -370  57  64
1720780444,057:  -1057  57  64
1720780444,057:  -1080  57  64
1720780444,089:   -403  57  64
1720780444,089:     92  57  64
1720780444,089:   -216  57  64
1720780444,089:   -863  57  64
1720780444,089:   -924  57  64
1720780444,089:   -281  57  64
1720780444,089:    228  57  64
1720780444,089:    -76  57  64
1720780444,089:   -793  57  64
1720780444,089:   -963  57  64
1720780444,089:   -356  57  64
1720780444,089:    241  57  64
1720780444,089:     74  57  64
1720780444,089:   -573  57  64
1720780444,089:   -762  57  64
1720780444,120:   -190  57  64
1720780444,120:    405  57  64
1720780444,120:    227  57  64
1720780444,120:   -505  57  64
1720780444,120:   -826  57  64
1720780444,120:   -320  57  64
1720780444,120:    344  57  64
1720780444,152:    308  57  64
1720780444,152:   -332  57  64
1720780444,152:   -656  57  64
1720780444,152:   -179  57  64
1720780444,152:    496  57  64
1720780444,152:    486  57  64
1720780444,152:   -196  57  64
1720780444,152:   -632  57  64
1720780444,152:   -238  57  64
1720780444,152:    472  57  64
1720780444,152:    580  57  64
1720780444,152:     -9  57  64
1720780444,152:   -442  57  64
1720780444,152:    -84  57  64
1720780444,152:    615  57  64
1720780444,152:    728  57  64
1720780444,152:     85  57  64
1720780444,152:   -468  57  64
1720780444,152:   -200  57  64
1720780444,152:    538  57  64
1720780444,152:    791  57  64
1720780444,152:    267  57  64
1720780444,152:   -274  57  64
1720780444,183:    -58  57  64
1720780444,183:    653  57  64
1720780444,183:    919  57  64
1720780444,183:    369  57  64
1720780444,183:   -274  57  64
1720780444,183:   -162  57  64
1720780444,183:    552  57  64
1720780444,183:    930  57  64
1720780444,183:    500  57  64
1720780444,183:   -119  57  64
1720780444,183:    -57  57  64
1720780444,183:    615  57  64
1720780444,183:    990  57  64
1720780444,183:    525  57  64
1720780444,183:   -211  57  64
1720780444,214:   -289  57  64
1720780444,214:    338  57  64
1720780444,214:    793  57  64
1720780444,214:    450  57  64
1720780444,214:   -237  57  64
1720780444,214:   -347  57  64
1720780444,214:    241  57  64
1720780444,214:    700  57  64
1720780444,214:    351  57  64
1720780444,214:   -407  57  64
1720780444,214:   -616  57  64
1720780444,214:    -49  57  64
1720780444,214:    510  57  64
1720780444,214:    311  57  64
1720780444,214:   -362  57  64
1720780444,245:   -578  57  64
1720780444,245:    -40  57  64
1720780444,245:    520  57  64
1720780444,245:    314  57  64
1720780444,245:   -436  57  64
1720780444,245:   -771  57  64
1720780444,245:   -283  57  64
1720780444,245:    356  57  64
1720780444,245:    294  57  64
1720780444,245:   -368  57  64
1720780444,245:   -710  57  64
1720780444,245:   -253  57  64
1720780444,245:    397  57  64
1720780444,245:    355  57  64
1720780444,245:   -355  57  64
1720780444,276:   -809  57  64
1720780444,276:   -420  57  64
1720780444,276:    291  57  64
1720780444,276:    397  57  64
1720780444,276:   -202  57  64
1720780444,276:   -651  57  64
1720780444,276:   -311  57  64
1720780444,276:    376  57  64
1720780444,276:    482  57  64
1720780444,276:   -172  57  64
1720780444,276:   -744  57  64
1720780444,276:   -502  57  64
1720780444,276:    210  57  64
1720780444,276:    443  57  64
1720780444,276:    -90  57  64
1720780444,276:   -635  57  64
1720780444,276:   -422  57  64
1720780444,276:    283  57  64
1720780444,276:    541  57  64
1720780444,276:    -15  57  64
1720780444,276:   -664  57  64
1720780444,276:   -558  57  64
1720780444,307:    150  57  64
1720780444,307:    526  57  64
1720780444,307:     98  57  64
1720780444,307:   -516  57  64
1720780444,307:   -453  57  64
1720780444,307:    215  57  64
1720780444,307:    586  57  64
1720780444,307:    128  57  64
1720780444,307:   -585  57  64
1720780444,307:   -628  57  64
1720780444,307:     36  57  64
1720780444,307:    525  57  64
1720780444,307:    210  57  64
1720780444,307:   -449  57  64
1720780444,307:   -525  57  64
1720780444,339:    105  57  64
1720780444,339:    604  57  64
1720780444,339:    285  57  64
1720780444,339:   -459  57  64
1720780444,339:   -663  57  64
1720780444,339:    -86  57  64
1720780444,339:    489  57  64
1720780444,339:    307  57  64
1720780444,369:   -356  57  64
1720780444,369:   -565  57  64
1720780444,369:    -13  57  64
1720780444,369:    569  57  64
1720780444,369:    382  57  64
1720780444,369:   -361  57  64
1720780444,369:   -696  57  64
1720780444,369:   -201  57  64
1720780444,369:    456  57  64
1720780444,369:    415  57  64
1720780444,369:   -239  57  64
1720780444,369:   -589  57  64
1720780444,369:   -142  57  64
1720780444,369:    505  57  64
1720780444,369:    469  57  64
1720780444,369:   -239  57  64
1720780444,369:   -701  57  64
1720780444,369:   -326  57  64
1720780444,369:    371  57  64
1720780444,369:    473  57  64
1720780444,369:   -125  57  64
1720780444,369:   -573  57  64
1720780444,399:   -233  57  64
1720780444,399:    454  57  64
1720780444,399:    562  57  64
1720780444,399:    -91  57  64
1720780444,399:   -664  57  64
1720780444,399:   -424  57  64
1720780444,399:    286  57  64
1720780444,399:    522  57  64
1720780444,399:     -8  57  64
1720780444,399:   -555  57  64
1720780444,399:   -353  57  64
1720780444,399:    332  57  64
1720780444,399:    570  57  64
1720780444,399:     -1  57  64
1720780444,399:   -658  57  64
1720780444,430:   -557  57  64
1720780444,430:    144  57  64
1720780444,430:    511  57  64
1720780444,430:     79  57  64
1720780444,430:   -535  57  64
1720780444,430:   -466  57  64
1720780444,430:    213  57  64
1720780444,430:    598  57  64
1720780444,430:    151  57  64
1720780444,430:   -561  57  64
1720780444,430:   -614  57  64
1720780444,430:     36  57  64
1720780444,430:    519  57  64
1720780444,430:    206  57  64
1720780444,430:   -451  57  64
1720780444,461:   -535  57  64
1720780444,461:     81  57  64
1720780444,461:    571  57  64
1720780444,461:    255  57  64
1720780444,461:   -479  57  64
1720780444,461:   -676  57  64
1720780444,461:    -94  57  64
1720780444,461:    491  57  64
1720780444,461:    325  57  64
1720780444,461:   -329  57  64
1720780444,461:   -543  57  64
1720780444,461:     -5  57  64
1720780444,461:    570  57  64
1720780444,461:    392  57  64
1720780444,461:   -337  57  64
1720780444,493:   -670  57  64
1720780444,493:   -190  57  64
1720780444,493:    449  57  64
1720780444,493:    397  57  64
1720780444,493:   -257  57  64
1720780444,493:   -605  57  64
1720780444,493:   -158  57  64
1720780444,493:    487  57  64
1720780444,525:    450  57  64
1720780444,525:   -260  57  64
1720780444,525:   -723  57  64
1720780444,525:   -348  57  64
1720780444,525:    356  57  64
1720780444,525:    460  57  64
1720780444,525:   -149  57  64
1720780444,525:   -616  57  64
1720780444,525:   -287  57  64
1720780444,525:    405  57  64
1720780444,525:    527  57  64
1720780444,525:   -122  57  64
1720780444,525:   -706  57  64
1720780444,525:   -478  57  64
1720780444,525:    236  57  64
1720780444,525:    487  57  64
1720780444,525:    -34  57  64
1720780444,525:   -591  57  64
1720780444,525:   -406  57  64
1720780444,525:    279  57  64
1720780444,525:    537  57  64
1720780444,557:    -11  57  64
1720780444,557:   -660  57  64
1720780444,557:   -567  57  64
1720780444,557:    125  57  64
1720780444,557:    495  57  64
1720780444,557:     68  57  64
1720780444,557:   -550  57  64
1720780444,557:   -498  57  64
1720780444,557:    165  57  64
1720780444,557:    545  57  64
1720780444,557:    101  57  64
1720780444,557:   -612  57  64
1720780444,557:   -676  57  64
1720780444,557:    -33  57  64
1720780444,557:    457  57  64
1720780444,557:    162  57  64
1720780444,557:   -484  57  64
1720780444,557:   -575  57  64
1720780444,557:     24  57  64
1720780444,557:    502  57  64
1720780444,557:    182  57  64
1720780444,588:   -554  57  64
1720780444,588:   -760  57  64
1720780444,588:   -192  57  64
1720780444,588:    382  57  64
1720780444,588:    203  57  64
1720780444,588:   -467  57  64
1720780444,588:   -699  57  64
1720780444,619:   -164  57  64
1720780444,619:    427  57  64
1720780444,619:    268  57  64
1720780444,619:   -461  57  64
1720780444,619:   -810  57  64
1720780444,619:   -335  57  64
1720780444,619:    329  57  64
1720780444,619:    317  57  64
1720780444,619:   -319  57  64
1720780444,619:   -685  57  64
1720780444,619:   -270  57  64
1720780444,619:    370  57  64
1720780444,619:    362  57  64
1720780444,619:   -319  57  64
1720780444,619:   -785  57  64
1720780444,619:   -436  57  64
1720780444,619:    254  57  64
1720780444,619:    379  57  64
1720780444,619:   -199  57  64
1720780444,619:   -667  57  64
1720780444,619:   -373  57  64
1720780444,619:    286  57  64
1720780444,619:    407  57  64
1720780444,650:   -213  57  64
1720780444,650:   -774  57  64
1720780444,650:   -546  57  64
1720780444,650:    162  57  64
1720780444,650:    420  57  64
1720780444,650:    -90  57  64
1720780444,650:   -651  57  64
1720780444,650:   -485  57  64
1720780444,650:    187  57  64
1720780444,650:    453  57  64
1720780444,650:    -85  57  64
1720780444,650:   -749  57  64
1720780444,650:   -691  57  64
1720780444,650:    -14  57  64
1720780444,650:    382  57  64
1720780444,682:     -3  57  64
1720780444,682:   -610  57  64
1720780444,682:   -587  57  64
1720780444,682:     46  57  64
1720780444,682:    436  57  64
1720780444,682:     33  57  64
1720780444,682:   -651  57  64
1720780444,682:   -724  57  64
1720780444,682:   -106  57  64
1720780444,682:    375  57  64
1720780444,682:     91  57  64
1720780444,682:   -550  57  64
1720780444,682:   -657  57  64
1720780444,682:    -74  57  64
1720780444,682:    417  57  64
1720780444,714:    132  57  64
1720780444,714:   -585  57  64
1720780444,714:   -807  57  64
1720780444,714:   -267  57  64
1720780444,714:    308  57  64
1720780444,714:    169  57  64
1720780444,714:   -463  57  64
1720780444,714:   -695  57  64
1720780444,714:   -192  57  64
1720780444,714:    376  57  64
1720780444,714:    226  57  64
1720780444,714:   -480  57  64
1720780444,714:   -830  57  64
1720780444,714:   -383  57  64
1720780444,714:    255  57  64
1720780444,714:    243  57  64
1720780444,714:   -381  57  64
1720780444,714:   -749  57  64
1720780444,714:   -352  57  64
1720780444,714:    281  57  64
1720780444,714:    291  57  64
1720780444,714:   -364  57  64
1720780444,746:   -831  57  64
1720780444,746:   -514  57  64
1720780444,746:    145  57  64
1720780444,746:    270  57  64
1720780444,746:   -280  57  64
1720780444,746:   -724  57  64
1720780444,746:   -431  57  64
1720780444,746:    219  57  64
1720780444,746:    342  57  64
1720780444,746:   -269  57  64
1720780444,746:   -838  57  64
1720780444,746:   -640  57  64
1720780444,746:     40  57  64
1720780444,746:    298  57  64
1720780444,746:   -186  57  64
1720780444,777:   -727  57  64
1720780444,777:   -568  57  64
1720780444,777:     90  57  64
1720780444,777:    363  57  64
1720780444,777:   -141  57  64
1720780444,777:   -774  57  64
1720780444,777:   -713  57  64
1720780444,777:    -64  57  64
1720780444,777:    304  57  64
1720780444,777:    -88  57  64
1720780444,777:   -680  57  64
1720780444,777:   -637  57  64
1720780444,777:      7  57  64
1720780444,777:    395  57  64
1720780444,777:    -23  57  64
1720780444,809:   -730  57  64
1720780444,809:   -828  57  64
1720780444,809:   -228  57  64
1720780444,809:    250  57  64
1720780444,809:    -25  57  64
1720780444,809:   -659  57  64
1720780444,809:   -772  57  64
1720780444,809:   -213  57  64
1720780444,809:    247  57  64
1720780444,809:    -56  57  64
1720780444,809:   -770  57  64
1720780444,809:   -978  57  64
1720780444,809:   -435  57  64
1720780444,809:    120  57  64
1720780444,809:    -51  57  64
1720780444,839:   -698  57  64
1720780444,839:   -914  57  64
1720780444,839:   -375  57  64
1720780444,839:    220  57  64
1720780444,839:     74  57  64
1720780444,839:   -644  57  64
1720780444,839:  -1004  57  64
1720780444,839:   -558  57  64
1720780444,839:     80  57  64
1720780444,839:     67  57  64
1720780444,839:   -553  57  64
1720780444,839:   -908  57  64
1720780444,839:   -497  57  64
1720780444,839:    132  57  64
1720780444,839:    122  57  64
1720780444,871:   -554  57  64
1720780444,871:  -1024  57  64
1720780444,871:   -688  57  64
1720780444,871:     -9  57  64
1720780444,871:    116  57  64
1720780444,871:   -455  57  64
1720780444,871:   -924  57  64
1720780444,871:   -642  57  64
1720780444,871:      9  57  64
1720780444,871:    140  57  64
1720780444,871:   -461  57  64
1720780444,871:  -1016  57  64
1720780444,871:   -806  57  64
1720780444,871:   -127  57  64
1720780444,871:    115  57  64
1720780444,903:   -391  57  64
1720780444,903:   -944  57  64
1720780444,903:   -782  57  64
1720780444,903:   -122  57  64
1720780444,903:    139  57  64
1720780444,903:   -384  57  64
1720780444,903:  -1029  57  64
1720780444,903:   -966  57  64
1720780444,903:   -306  57  64
1720780444,903:     66  57  64
1720780444,903:   -331  57  64
1720780444,903:   -932  57  64
1720780444,903:   -900  57  64
1720780444,903:   -270  57  64
1720780444,903:    103  57  64
1720780444,934:   -314  57  64
1720780444,934:   -994  57  64
1720780444,934:  -1039  57  64
1720780444,934:   -378  57  64
1720780444,934:    153  57  64
1720780444,934:    -91  57  64
1720780444,934:   -736  57  64
1720780444,934:   -925  57  64
1720780444,934:   -509  57  64
1720780444,934:   -247  57  64
1720780444,934:   -789  57  64
1720780444,934:  -1784  57  64
1720780444,934:  -2297  57  64
1720780444,934:  -2006  57  64
1720780444,934:  -1544  57  64
1720780444,934:  -1577  57  64
1720780444,934:  -1856  57  64
1720780444,934:  -1498  57  64
1720780444,934:   -157  57  64
1720780444,934:   1534  57  64
1720780444,934:   2782  57  64
1720780444,934:   3631  57  64
1720780444,934:   4831  57  64
1720780444,965:   6727  58  60
1720780444,965:   8712  58  60
1720780444,965:   9955  58  60
1720780444,965:  10414  58  60
1720780444,965:  10807  58  60
1720780444,965:  11543  58  60
1720780444,965:  12091  58  60
1720780444,965:  11628  58  60
1720780444,965:  10090  58  60
1720780444,965:   8280  58  60
1720780444,965:   6842  58  60
1720780444,965:   5545  58  60
1720780444,965:   3787  58  60
1720780444,965:   1596  58  60
1720780444,965:   -242  58  60
1720780444,997:  -1154  58  60
1720780444,997:  -1511  58  60
1720780444,997:  -2087  58  60
1720780444,997:  -2994  58  60
1720780444,997:  -3500  58  60
1720780444,997:  -3061  58  60
1720780444,997:  -2174  58  60
1720780445,028:  -1863  58  60
1720780445,028:  -2449  58  60
1720780445,028:  -3170  58  60
1720780445,028:  -3193  58  60
1720780445,028:  -2694  58  60
1720780445,028:  -2565  58  60
1720780445,028:  -3206  58  60
1720780445,028:  -3959  58  60
1720780445,028:  -3962  58  60
1720780445,028:  -3280  58  60
1720780445,028:  -2788  58  60
1720780445,028:  -3016  58  60
1720780445,028:  -3470  58  60
1720780445,028:  -3347  58  60
1720780445,028:  -2671  58  60
1720780445,028:  -2280  58  60
1720780445,028:  -2710  58  60
1720780445,028:  -3439  58  60
1720780445,028:  -3537  58  60
1720780445,028:  -2873  58  60
1720780445,028:  -2251  58  60
1720780445,028:  -2348  58  60
1720780445,028:  -2837  58  60
1720780445,060:  -2875  58  60
1720780445,060:  -2281  58  60
1720780445,060:  -1784  58  60
1720780445,060:  -2036  58  60
1720780445,060:  -2712  58  60
1720780445,060:  -2897  58  60
1720780445,060:  -2308  58  60
1720780445,060:  -1645  58  60
1720780445,060:  -1667  58  60
1720780445,060:  -2198  58  60
1720780445,060:  -2384  58  60
1720780445,060:  -1878  58  60
1720780445,060:  -1298  58  60
1720780445,060:  -1396  58  60
1720780445,060:  -2034  58  60
1720780445,092:  -2335  58  60
1720780445,092:  -1866  58  60
1720780445,092:  -1199  58  60
1720780445,092:  -1146  58  60
1720780445,092:  -1685  58  60
1720780445,092:  -1994  58  60
1720780445,092:  -1580  58  60
1720780445,092:   -946  58  60
1720780445,092:   -912  58  60
1720780445,092:  -1514  58  60
1720780445,092:  -1928  58  60
1720780445,092:  -1571  58  60
1720780445,092:   -872  58  60
1720780445,092:   -690  58  60
1720780445,092:  -1184  58  60
1720780445,124:  -1610  58  60
1720780445,124:  -1338  58  60
1720780445,124:   -706  58  60
1720780445,124:   -550  58  60
1720780445,124:  -1088  58  60
1720780445,124:  -1599  58  60
1720780445,124:  -1390  58  60
1720780445,124:   -718  58  60
1720780445,124:   -431  58  60
1720780445,124:   -849  58  60
1720780445,124:  -1341  58  60
1720780445,124:  -1190  58  60
1720780445,124:   -572  58  60
1720780445,124:   -304  58  60
1720780445,124:   -752  58  60
1720780445,154:  -1316  58  60
1720780445,154:  -1230  58  60
1720780445,154:   -583  58  60
1720780445,154:   -191  58  60
1720780445,154:   -510  58  60
1720780445,154:  -1040  58  60
1720780445,154:  -1007  58  60
1720780445,154:   -429  58  60
1720780445,154:    -77  58  60
1720780445,154:   -448  58  60
1720780445,154:  -1072  58  60
1720780445,154:  -1126  58  60
1720780445,154:   -531  58  60
1720780445,154:    -41  58  60
1720780445,154:   -243  58  60
1720780445,186:   -787  58  60
1720780445,186:   -869  58  60
1720780445,186:   -336  58  60
1720780445,186:    125  58  60
1720780445,186:    -96  58  60
1720780445,186:   -701  58  60
1720780445,186:   -867  58  60
1720780445,186:   -360  58  60
1720780445,186:    176  58  60
1720780445,186:     73  58  60
1720780445,186:   -473  58  60
1720780445,186:   -672  58  60
1720780445,186:   -222  58  60
1720780445,186:    289  58  60
1720780445,186:    176  58  60
1720780445,186:   -421  58  60
1720780445,186:   -703  58  60
1720780445,186:   -289  58  60
1720780445,186:    287  58  60
1720780445,186:    300  58  60
1720780445,186:   -207  58  60
1720780445,186:   -481  58  60
1720780445,218:   -102  58  60
1720780445,218:    448  58  60
1720780445,218:    431  58  60
1720780445,218:   -155  58  60
1720780445,218:   -542  58  60
1720780445,218:   -220  58  60
1720780445,218:    387  58  60
1720780445,218:    497  58  60
1720780445,249:     -1  58  60
1720780445,249:   -392  58  60
1720780445,249:   -116  58  60
1720780445,249:    477  58  60
1720780445,249:    600  58  60
1720780445,249:     72  58  60
1720780445,249:   -417  58  60
1720780445,249:   -234  58  60
1720780445,249:    357  58  60
1720780445,249:    561  58  60
1720780445,249:    109  58  60
1720780445,249:   -381  58  60
1720780445,249:   -247  58  60
1720780445,249:    310  58  60
1720780445,249:    503  58  60
1720780445,249:      1  58  60
1720780445,249:   -599  58  60
1720780445,249:   -560  58  60
1720780445,249:     14  58  60
1720780445,249:    333  58  60
1720780445,249:    -31  58  60
1720780445,249:   -580  58  60
1720780445,280:   -564  58  60
1720780445,280:    -11  58  60
1720780445,280:    321  58  60
1720780445,280:    -52  58  60
1720780445,280:   -674  58  60
1720780445,280:   -751  58  60
1720780445,280:   -215  58  60
1720780445,280:    200  58  60
1720780445,280:    -62  58  60
1720780445,280:   -637  58  60
1720780445,280:   -731  58  60
1720780445,280:   -209  58  60
1720780445,280:    230  58  60
1720780445,280:    -19  58  60
1720780445,280:   -651  58  60
1720780445,310:   -838  58  60
1720780445,310:   -348  58  60
1720780445,310:    165  58  60
1720780445,310:     33  58  60
1720780445,310:   -538  58  60
1720780445,310:   -742  58  60
1720780445,310:   -285  58  60
1720780445,310:    225  58  60
1720780445,310:     87  58  60
1720780445,310:   -552  58  60
1720780445,310:   -862  58  60
1720780445,310:   -449  58  60
1720780445,310:    136  58  60
1720780445,310:    138  58  60
1720780445,310:   -404  58  60
1720780445,341:   -709  58  60
1720780445,341:   -328  58  60
1720780445,341:    248  58  60
1720780445,341:    247  58  60
1720780445,341:   -354  58  60
1720780445,341:   -769  58  60
1720780445,341:   -464  58  60
1720780445,341:    141  58  60
1720780445,341:    242  58  60
1720780445,341:   -283  58  60
1720780445,341:   -704  58  60
1720780445,341:   -435  58  60
1720780445,341:    168  58  60
1720780445,341:    289  58  60
1720780445,341:   -268  58  60
1720780445,372:   -789  58  60
1720780445,372:   -609  58  60
1720780445,372:     11  58  60
1720780445,372:    247  58  60
1720780445,372:   -196  58  60
1720780445,372:   -687  58  60
1720780445,372:   -534  58  60
1720780445,372:     70  58  60
1720780445,372:    316  58  60
1720780445,372:   -151  58  60
1720780445,372:   -729  58  60
1720780445,372:   -663  58  60
1720780445,372:    -54  58  60
1720780445,372:    290  58  60
1720780445,372:    -70  58  60
1720780445,403:   -621  58  60
1720780445,403:   -587  58  60
1720780445,403:      6  58  60
1720780445,403:    375  58  60
1720780445,403:     16  58  60
1720780445,403:   -610  58  60
1720780445,403:   -681  58  60
1720780445,403:   -117  58  60
1720780445,403:    329  58  60
1720780445,403:     79  58  60
1720780445,403:   -503  58  60
1720780445,403:   -602  58  60
1720780445,403:    -70  58  60
1720780445,403:    383  58  60
1720780445,403:    132  58  60
1720780445,403:   -517  58  60
1720780445,403:   -718  58  60
1720780445,403:   -219  58  60
1720780445,403:    315  58  60
1720780445,403:    189  58  60
1720780445,403:   -403  58  60
1720780445,403:   -640  58  60
1720780445,403:   -193  58  60
1720780445,434:    340  58  60
1720780445,434:    236  58  60
1720780445,434:   -390  58  60
1720780445,434:   -717  58  60
1720780445,434:   -327  58  60
1720780445,434:    252  58  60
1720780445,434:    259  58  60
1720780445,466:   -290  58  60
1720780445,466:   -624  58  60
1720780445,466:   -273  58  60
1720780445,466:    294  58  60
1720780445,466:    302  58  60
1720780445,466:   -296  58  60
1720780445,466:   -723  58  60
1720780445,466:   -427  58  60
1720780445,466:    196  58  60
1720780445,466:    333  58  60
1720780445,466:   -167  58  60
1720780445,466:   -596  58  60
1720780445,466:   -353  58  60
1720780445,466:    238  58  60
1720780445,466:    374  58  60
1720780445,497:   -160  58  60
1720780445,497:   -678  58  60
1720780445,497:   -515  58  60
1720780445,497:     88  58  60
1720780445,497:    319  58  60
1720780445,497:   -118  58  60
1720780445,497:   -606  58  60
1720780445,497:   -456  58  60
1720780445,497:    149  58  60
1720780445,497:    403  58  60
1720780445,497:    -57  58  60
1720780445,497:   -638  58  60
1720780445,497:   -578  58  60
1720780445,497:     36  58  60
1720780445,497:    397  58  60
1720780445,497:     50  58  60
1720780445,497:   -510  58  60
1720780445,497:   -502  58  60
1720780445,497:     68  58  60
1720780445,497:    432  58  60
1720780445,497:     79  58  60
1720780445,497:   -544  58  60
1720780445,497:   -621  58  60
1720780445,528:    -62  58  60
1720780445,528:    393  58  60
1720780445,528:    159  58  60
1720780445,528:   -414  58  60
1720780445,528:   -519  58  60
1720780445,528:      6  58  60
1720780445,528:    468  58  60
1720780445,528:    239  58  60
1720780445,528:   -392  58  60
1720780445,528:   -595  58  60
1720780445,528:   -112  58  60
1720780445,528:    415  58  60
1720780445,560:    307  58  60
1720780445,560:   -250  58  60
1720780445,560:   -460  58  60
1720780445,560:     -7  58  60
1720780445,560:    515  58  60
1720780445,560:    400  58  60
1720780445,560:   -221  58  60
1720780445,560:   -533  58  60
1720780445,560:   -130  58  60
1720780445,560:    451  58  60
1720780445,560:    449  58  60
1720780445,560:   -113  58  60
1720780445,560:   -457  58  60
1720780445,560:   -108  58  60
1720780445,560:    465  58  60
1720780445,591:    483  58  60
1720780445,591:   -109  58  60
1720780445,591:   -542  58  60
1720780445,591:   -262  58  60
1720780445,591:    347  58  60
1720780445,591:    480  58  60
1720780445,591:    -17  58  60
1720780445,591:   -444  58  60
1720780445,591:   -203  58  60
1720780445,591:    391  58  60
1720780445,591:    536  58  60
1720780445,591:     10  58  60
1720780445,591:   -509  58  60
1720780445,591:   -349  58  60
1720780445,591:    264  58  60
1720780445,621:    525  58  60
1720780445,621:    117  58  60
1720780445,621:   -367  58  60
1720780445,621:   -235  58  60
1720780445,621:    353  58  60
1720780445,621:    609  58  60
1720780445,621:    164  58  60
1720780445,621:   -411  58  60
1720780445,621:   -360  58  60
1720780445,621:    243  58  60
1720780445,621:    606  58  60
1720780445,621:    269  58  60
1720780445,621:   -283  58  60
1720780445,621:   -271  58  60
1720780445,621:    311  58  60
1720780445,621:    697  58  60
1720780445,621:    361  58  60
1720780445,621:   -268  58  60
1720780445,621:   -370  58  60
1720780445,621:    168  58  60
1720780445,621:    622  58  60
1720780445,621:    397  58  60
1720780445,621:   -179  58  60
1720780445,652:   -303  58  60
1720780445,652:    200  58  60
1720780445,652:    647  58  60
1720780445,652:    409  58  60
1720780445,652:   -234  58  60
1720780445,652:   -446  58  60
1720780445,652:     41  58  60
1720780445,683:    578  58  60
1720780445,683:    468  58  60
1720780445,683:   -108  58  60
1720780445,683:   -338  58  60
1720780445,683:    111  58  60
1720780445,683:    643  58  60
1720780445,683:    528  58  60
1720780445,683:   -117  58  60
1720780445,683:   -460  58  60
1720780445,683:    -72  58  60
1720780445,683:    514  58  60
1720780445,683:    516  58  60
1720780445,683:    -54  58  60
1720780445,683:   -412  58  60
1720780445,683:    -65  58  60
1720780445,715:    520  58  60
1720780445,715:    549  58  60
1720780445,715:    -49  58  60
1720780445,715:   -499  58  60
1720780445,715:   -227  58  60
1720780445,715:    391  58  60
1720780445,715:    543  58  60
1720780445,715:     59  58  60
1720780445,715:   -367  58  60
1720780445,715:   -129  58  60
1720780445,715:    464  58  60
1720780445,715:    613  58  60
1720780445,715:     92  58  60
1720780445,715:   -422  58  60
1720780445,715:   -257  58  60
1720780445,715:    357  58  60
1720780445,715:    612  58  60
1720780445,715:    191  58  60
1720780445,715:   -304  58  60
1720780445,715:   -173  58  60
1720780445,715:    429  58  60
1720780445,715:    703  58  60
1720780445,715:    268  58  60
1720780445,745:   -313  58  60
1720780445,745:   -278  58  60
1720780445,745:    312  58  60
1720780445,745:    672  58  60
1720780445,745:    341  58  60
1720780445,745:   -207  58  60
1720780445,745:   -201  58  60
1720780445,745:    363  58  60
1720780445,745:    728  58  60
1720780445,745:    378  58  60
1720780445,745:   -251  58  60
1720780445,745:   -338  58  60
1720780445,745:    217  58  60
1720780445,745:    677  58  60
1720780445,745:    445  58  60
1720780445,777:   -137  58  60
1720780445,777:   -252  58  60
1720780445,777:    277  58  60
1720780445,777:    751  58  60
1720780445,777:    525  58  60
1720780445,777:   -125  58  60
1720780445,777:   -350  58  60
1720780445,777:    131  58  60
1720780445,777:    673  58  60
1720780445,777:    568  58  60
1720780445,777:    -16  58  60
1720780445,777:   -259  58  60
1720780445,777:    184  58  60
1720780445,777:    725  58  60
1720780445,777:    630  58  60
1720780445,808:     -1  58  60
1720780445,808:   -342  58  60
1720780445,808:     44  58  60
1720780445,808:    637  58  60
1720780445,808:    657  58  60
1720780445,808:     99  58  60
1720780445,808:   -261  58  60
1720780445,808:     76  58  60
1720780445,808:    659  58  60
1720780445,808:    701  58  60
1720780445,808:    121  58  60
1720780445,808:   -324  58  60
1720780445,808:    -60  58  60
1720780445,808:    552  58  60
1720780445,808:    703  58  60
1720780445,839:    215  58  60
1720780445,839:   -227  58  60
1720780445,839:    -11  58  60
1720780445,839:    571  58  60
1720780445,839:    728  58  60
1720780445,839:    222  58  60
1720780445,839:   -287  58  60
1720780445,839:   -125  58  60
1720780445,839:    496  58  60
1720780445,839:    769  58  60
1720780445,839:    363  58  60
1720780445,839:   -138  58  60
1720780445,839:    -27  58  60
1720780445,839:    556  58  60
1720780445,839:    821  58  60
1720780445,870:    375  58  60
1720780445,870:   -227  58  60
1720780445,870:   -207  58  60
1720780445,870:    397  58  60
1720780445,870:    803  58  60
1720780445,870:    518  58  60
1720780445,870:    -14  58  60
1720780445,870:    -15  58  60
1720780445,870:    550  58  60
1720780445,870:    938  58  60
1720780445,870:    612  58  60
1720780445,870:    -25  58  60
1720780445,870:   -156  58  60
1720780445,870:    352  58  60
1720780445,870:    789  58  60
1720780445,901:    551  58  60
1720780445,901:    -48  58  60
1720780445,901:   -198  58  60
1720780445,901:    298  58  60
1720780445,901:    763  58  60
1720780445,901:    545  58  60
1720780445,901:   -103  58  60
1720780445,901:   -349  58  60
1720780445,901:    104  58  60
1720780445,901:    633  58  60
1720780445,901:    542  58  60
1720780445,901:    -14  58  60
1720780445,901:   -245  58  60
1720780445,901:    184  58  60
1720780445,901:    699  58  60
1720780445,901:    588  58  60
1720780445,901:    -37  58  60
1720780445,901:   -365  58  60
1720780445,901:     21  58  60
1720780445,901:    599  58  60
1720780445,901:    615  58  60
1720780445,901:     81  58  60
1720780445,932:   -240  58  60
1720780445,932:    115  58  60
1720780445,932:    693  58  60
1720780445,932:    745  58  60
1720780445,932:    221  58  60
1720780445,932:   -162  58  60
1720780445,932:     78  58  60
1720780445,932:    523  58  60
1720780445,932:    411  58  60
1720780445,932:   -352  58  60
1720780445,932:  -1057  58  60
1720780445,932:  -1133  58  60
1720780445,932:   -869  58  60
1720780445,932:   -951  58  60
1720780445,932:  -1467  58  60
1720780445,964:  -1690  58  60
1720780445,964:   -986  58  60
1720780445,964:    398  58  60
1720780445,964:   1703  58  60
1720780445,964:   2648  58  60
1720780445,964:   3737  58  60
1720780445,964:   5471  58  60
1720780445,964:   7545  58  60
1720780445,964:   9172  58  60
1720780445,964:  10036  58  60
1720780445,964:  10646  58  60
1720780445,964:  11574  58  60
1720780445,964:  12602  58  60
1720780445,964:  12952  58  60
1720780445,964:  12255  58  60
1720780445,996:  10991  60  58
1720780445,996:   9813  60  58
1720780445,996:   8677  60  58
1720780445,996:   7011  60  58
1720780445,996:   4661  60  58
1720780445,996:   2325  60  58
1720780445,996:    827  60  58
1720780445,996:    131  60  58
1720780445,996:   -541  60  58
1720780445,996:  -1644  60  58
1720780445,996:  -2682  60  58
1720780445,996:  -2845  60  58
1720780445,996:  -2149  60  58
1720780445,996:  -1507  60  58
1720780445,996:  -1676  60  58
1720780446,027:  -2385  60  58
1720780446,027:  -2753  60  58
1720780446,027:  -2468  60  58
1720780446,027:  -2129  60  58
1720780446,027:  -2391  60  58
1720780446,027:  -3066  60  58
1720780446,027:  -3376  60  58
1720780446,027:  -3011  60  58
1720780446,027:  -2532  60  58
1720780446,027:  -2606  60  58
1720780446,027:  -3108  60  58
1720780446,027:  -3276  60  58
1720780446,027:  -2765  60  58
1720780446,027:  -2136  60  58
1720780446,027:  -2135  60  58
1720780446,059:  -2714  60  58
1720780446,059:  -3080  60  58
1720780446,059:  -2745  60  58
1720780446,059:  -2156  60  58
1720780446,059:  -2067  60  58
1720780446,059:  -2533  60  58
1720780446,059:  -2829  60  58
1720780446,059:  -2449  60  58
1720780446,059:  -1808  60  58
1720780446,059:  -1692  60  58
1720780446,059:  -2208  60  58
1720780446,059:  -2623  60  58
1720780446,059:  -2332  60  58
1720780446,059:  -1665  60  58
1720780446,059:  -1437  60  58
1720780446,089:  -1876  60  58
1720780446,089:  -2310  60  58
1720780446,089:  -2083  60  58
1720780446,089:  -1436  60  58
1720780446,089:  -1171  60  58
1720780446,089:  -1580  60  58
1720780446,089:  -2045  60  58
1720780446,089:  -1870  60  58
1720780446,089:  -1235  60  58
1720780446,089:   -941  60  58
1720780446,089:  -1354  60  58
1720780446,089:  -1889  60  58
1720780446,089:  -1792  60  58
1720780446,089:  -1151  60  58
1720780446,089:   -770  60  58
1720780446,119:  -1099  60  58
1720780446,119:  -1636  60  58
1720780446,119:  -1596  60  58
1720780446,119:   -991  60  58
1720780446,119:   -601  60  58
1720780446,119:   -940  60  58
1720780446,119:  -1551  60  58
1720780446,119:  -1601  60  58
1720780446,119:  -1004  60  58
1720780446,119:   -518  60  58
1720780446,119:   -740  60  58
1720780446,119:  -1311  60  58
1720780446,119:  -1399  60  58
1720780446,119:   -843  60  58
1720780446,119:   -359  60  58
1720780446,149:   -589  60  58
1720780446,149:  -1234  60  58
1720780446,149:  -1433  60  58
1720780446,149:   -921  60  58
1720780446,149:   -360  60  58
1720780446,149:   -460  60  58
1720780446,149:  -1035  60  58
1720780446,149:  -1262  60  58
1720780446,149:   -802  60  58
1720780446,149:   -252  60  58
1720780446,149:   -340  60  58
1720780446,149:   -954  60  58
1720780446,149:  -1270  60  58
1720780446,149:   -862  60  58
1720780446,149:   -256  60  58
1720780446,181:   -222  60  58
1720780446,181:   -754  60  58
1720780446,181:  -1079  60  58
1720780446,181:   -716  60  58
1720780446,181:   -122  60  58
1720780446,181:    -77  60  58
1720780446,181:   -643  60  58
1720780446,181:  -1060  60  58
1720780446,181:   -765  60  58
1720780446,181:   -148  60  58
1720780446,181:    -13  60  58
1720780446,181:   -517  60  58
1720780446,181:   -943  60  58
1720780446,181:   -672  60  58
1720780446,181:    -30  60  58
1720780446,213:    151  60  58
1720780446,213:   -380  60  58
1720780446,213:   -927  60  58
1720780446,213:   -775  60  58
1720780446,213:   -136  60  58
1720780446,213:    144  60  58
1720780446,213:   -288  60  58
1720780446,213:   -826  60  58
1720780446,213:   -715  60  58
1720780446,213:    -77  60  58
1720780446,213:    266  60  58
1720780446,213:   -125  60  58
1720780446,213:   -707  60  58
1720780446,213:   -680  60  58
1720780446,213:    -64  60  58
1720780446,243:    347  60  58
1720780446,243:     45  60  58
1720780446,243:   -515  60  58
1720780446,243:   -524  60  58
1720780446,243:     70  60  58
1720780446,243:    510  60  58
1720780446,243:    232  60  58
1720780446,243:   -365  60  58
1720780446,243:   -445  60  58
1720780446,243:    131  60  58
1720780446,243:    634  60  58
1720780446,243:    436  60  58
1720780446,243:   -152  60  58
1720780446,243:   -299  60  58
1720780446,243:    211  60  58
1720780446,243:    697  60  58
1720780446,243:    488  60  58
1720780446,243:   -173  60  58
1720780446,243:   -440  60  58
1720780446,243:      2  60  58
1720780446,243:    541  60  58
1720780446,243:    458  60  58
1720780446,243:   -120  60  58
1720780446,275:   -397  60  58
1720780446,275:     -4  60  58
1720780446,275:    523  60  58
1720780446,275:    469  60  58
1720780446,275:    -94  60  58
1720780446,275:   -386  60  58
1720780446,275:     16  60  58
1720780446,275:    615  60  58
1720780446,275:    660  60  58
1720780446,275:    149  60  58
1720780446,275:   -165  60  58
1720780446,275:    198  60  58
1720780446,275:    782  60  58
1720780446,275:    806  60  58
1720780446,275:    197  60  58
1720780446,306:   -276  60  58
1720780446,306:    -23  60  58
1720780446,306:    596  60  58
1720780446,306:    760  60  58
1720780446,306:    270  60  58
1720780446,306:   -191  60  58
1720780446,306:     10  60  58
1720780446,337:    596  60  58
1720780446,337:    763  60  58
1720780446,337:    247  60  58
1720780446,337:   -297  60  58
1720780446,337:   -170  60  58
1720780446,337:    442  60  58
1720780446,337:    724  60  58
1720780446,337:    314  60  58
1720780446,337:   -215  60  58
1720780446,337:   -133  60  58
1720780446,337:    455  60  58
1720780446,337:    763  60  58
1720780446,337:    362  60  58
1720780446,337:   -232  60  58
1720780446,337:   -246  60  58
1720780446,337:    312  60  58
1720780446,337:    688  60  58
1720780446,337:    393  60  58
1720780446,337:   -145  60  58
1720780446,337:   -160  60  58
1720780446,337:    390  60  58
1720780446,337:    776  60  58
1720780446,337:    466  60  58
1720780446,369:   -144  60  58
1720780446,369:   -248  60  58
1720780446,369:    289  60  58
1720780446,369:    759  60  58
1720780446,369:    558  60  58
1720780446,369:    -15  60  58
1720780446,369:   -164  60  58
1720780446,369:    315  60  58
1720780446,369:    763  60  58
1720780446,369:    548  60  58
1720780446,369:    -82  60  58
1720780446,369:   -304  60  58
1720780446,369:    167  60  58
1720780446,369:    713  60  58
1720780446,369:    636  60  58
1720780446,401:     76  60  58
1720780446,401:   -174  60  58
1720780446,401:    244  60  58
1720780446,401:    776  60  58
1720780446,401:    703  60  58
1720780446,401:     96  60  58
1720780446,401:   -254  60  58
1720780446,401:    101  60  58
1720780446,401:    680  60  58
1720780446,401:    730  60  58
1720780446,401:    219  60  58
1720780446,401:   -122  60  58
1720780446,401:    187  60  58
1720780446,401:    723  60  58
1720780446,401:    732  60  58
1720780446,432:    142  60  58
1720780446,432:   -305  60  58
1720780446,432:    -42  60  58
1720780446,432:    568  60  58
1720780446,432:    722  60  58
1720780446,432:    237  60  58
1720780446,432:   -201  60  58
1720780446,432:     30  60  58
1720780446,432:    638  60  58
1720780446,432:    815  60  58
1720780446,432:    302  60  58
1720780446,432:   -239  60  58
1720780446,432:   -104  60  58
1720780446,432:    513  60  58
1720780446,432:    794  60  58
1720780446,464:    382  60  58
1720780446,464:   -140  60  58
1720780446,464:    -39  60  58
1720780446,464:    562  60  58
1720780446,464:    860  60  58
1720780446,464:    432  60  58
1720780446,464:   -173  60  58
1720780446,464:   -156  60  58
1720780446,464:    459  60  58
1720780446,464:    875  60  58
1720780446,464:    575  60  58
1720780446,464:      5  60  58
1720780446,464:    -28  60  58
1720780446,464:    536  60  58
1720780446,464:    948  60  58
1720780446,495:    646  60  58
1720780446,495:     14  60  58
1720780446,495:   -121  60  58
1720780446,495:    394  60  58
1720780446,495:    851  60  58
1720780446,495:    636  60  58
1720780446,495:     51  60  58
1720780446,495:    -93  60  58
1720780446,495:    409  60  58
1720780446,495:    884  60  58
1720780446,495:    678  60  58
1720780446,495:     36  60  58
1720780446,495:   -205  60  58
1720780446,495:    261  60  58
1720780446,495:    817  60  58
1720780446,526:    747  60  58
1720780446,526:    187  60  58
1720780446,526:    -67  60  58
1720780446,526:    352  60  58
1720780446,526:    891  60  58
1720780446,526:    823  60  58
1720780446,526:    222  60  58
1720780446,526:   -113  60  58
1720780446,526:    262  60  58
1720780446,526:    847  60  58
1720780446,526:    874  60  58
1720780446,526:    326  60  58
1720780446,526:    -35  60  58
1720780446,526:    295  60  58
1720780446,526:    878  60  58
1720780446,526:    928  60  58
1720780446,526:    357  60  58
1720780446,526:    -79  60  58
1720780446,526:    206  60  58
1720780446,526:    845  60  58
1720780446,526:   1018  60  58
1720780446,526:    533  60  58
1720780446,557:     83  60  58
1720780446,557:    297  60  58
1720780446,557:    890  60  58
1720780446,557:   1050  60  58
1720780446,557:    522  60  58
1720780446,557:    -30  60  58
1720780446,557:     95  60  58
1720780446,557:    703  60  58
1720780446,557:    983  60  58
1720780446,557:    584  60  58
1720780446,557:     75  60  58
1720780446,557:    171  60  58
1720780446,589:    748  60  58
1720780446,589:   1027  60  58
1720780446,589:    606  60  58
1720780446,589:     20  60  58
1720780446,589:     35  60  58
1720780446,589:    618  60  58
1720780446,589:    996  60  58
1720780446,589:    678  60  58
1720780446,589:    110  60  58
1720780446,589:     74  60  58
1720780446,589:    622  60  58
1720780446,589:   1017  60  58
1720780446,589:    708  60  58
1720780446,589:     73  60  58
1720780446,589:    -67  60  58
1720780446,621:    448  60  58
1720780446,621:    925  60  58
1720780446,621:    744  60  58
1720780446,621:    171  60  58
1720780446,621:      0  60  58
1720780446,621:    464  60  58
1720780446,621:    931  60  58
1720780446,621:    752  60  58
1720780446,621:    136  60  58
1720780446,621:   -111  60  58
1720780446,621:    325  60  58
1720780446,621:    860  60  58
1720780446,621:    792  60  58
1720780446,621:    238  60  58
1720780446,621:    -24  60  58
1720780446,652:    384  60  58
1720780446,652:    927  60  58
1720780446,652:    872  60  58
1720780446,652:    257  60  58
1720780446,652:   -126  60  58
1720780446,652:    201  60  58
1720780446,652:    787  60  58
1720780446,652:    864  60  58
1720780446,652:    360  60  58
1720780446,652:     -8  60  58
1720780446,652:    283  60  58
1720780446,652:    853  60  58
1720780446,652:    943  60  58
1720780446,652:    425  60  58
1720780446,652:     -3  60  58
1720780446,652:    239  60  58
1720780446,652:    832  60  58
1720780446,652:    995  60  58
1720780446,652:    522  60  58
1720780446,652:     67  60  58
1720780446,652:    261  60  58
1720780446,652:    847  60  58
1720780446,652:   1029  60  58
1720780446,684:    526  60  58
1720780446,684:    -32  60  58
1720780446,684:     69  60  58
1720780446,684:    674  60  58
1720780446,684:    984  60  58
1720780446,684:    615  60  58
1720780446,684:    103  60  58
1720780446,684:    174  60  58
1720780446,684:    751  60  58
1720780446,684:   1071  60  58
1720780446,684:    699  60  58
1720780446,684:    125  60  58
1720780446,684:    115  60  58
1720780446,684:    677  60  58
1720780446,684:   1070  60  58
1720780446,715:    795  60  58
1720780446,715:    258  60  58
1720780446,715:    219  60  58
1720780446,715:    743  60  58
1720780446,715:   1121  60  58
1720780446,715:    821  60  58
1720780446,715:    215  60  58
1720780446,715:    101  60  58
1720780446,715:    625  60  58
1720780446,715:   1094  60  58
1720780446,715:    902  60  58
1720780446,715:    336  60  58
1720780446,715:    197  60  58
1720780446,715:    705  60  58
1720780446,715:   1203  60  58
1720780446,747:   1028  60  58
1720780446,747:    397  60  58
1720780446,747:    138  60  58
1720780446,747:    581  60  58
1720780446,747:   1136  60  58
1720780446,747:   1082  60  58
1720780446,747:    523  60  58
1720780446,747:    245  60  58
1720780446,747:    637  60  58
1720780446,747:   1177  60  58
1720780446,747:   1132  60  58
1720780446,747:    542  60  58
1720780446,747:    187  60  58
1720780446,747:    538  60  58
1720780446,747:   1133  60  58
1720780446,779:   1203  60  58
1720780446,779:    692  60  58
1720780446,779:    334  60  58
1720780446,779:    650  60  58
1720780446,779:   1238  60  58
1720780446,779:   1317  60  58
1720780446,779:    766  60  58
1720780446,779:    307  60  58
1720780446,779:    545  60  58
1720780446,779:   1163  60  58
1720780446,779:   1361  60  58
1720780446,779:    918  60  58
1720780446,779:    481  60  58
1720780446,779:    679  60  58
1720780446,779:   1266  60  58
1720780446,811:   1459  60  58
1720780446,811:    978  60  58
1720780446,811:    450  60  58
1720780446,811:    569  60  58
1720780446,811:   1168  60  58
1720780446,811:   1450  60  58
1720780446,811:   1055  60  58
1720780446,811:    541  60  58
1720780446,811:    631  60  58
1720780446,811:   1217  60  58
1720780446,811:   1511  60  58
1720780446,811:   1085  60  58
1720780446,811:    471  60  58
1720780446,811:    465  60  58
1720780446,811:   1064  60  58
1720780446,843:   1480  60  58
1720780446,843:   1179  60  58
1720780446,843:    589  60  58
1720780446,843:    521  60  58
1720780446,843:   1068  60  58
1720780446,843:   1493  60  58
1720780446,843:   1209  60  58
1720780446,843:    573  60  58
1720780446,843:    421  60  58
1720780446,843:    942  60  58
1720780446,843:   1445  60  58
1720780446,843:   1285  60  58
1720780446,843:    714  60  58
1720780446,843:    540  60  58
1720780446,843:   1013  60  58
1720780446,874:   1494  60  58
1720780446,874:   1309  60  58
1720780446,874:    659  60  58
1720780446,874:    373  60  58
1720780446,874:    798  60  58
1720780446,874:   1347  60  58
1720780446,874:   1291  60  58
1720780446,874:    726  60  58
1720780446,874:    440  60  58
1720780446,874:    836  60  58
1720780446,874:   1383  60  58
1720780446,874:   1335  60  58
1720780446,874:    728  60  58
1720780446,874:    356  60  58
1720780446,874:    701  60  58
1720780446,874:   1298  60  58
1720780446,874:   1364  60  58
1720780446,874:    842  60  58
1720780446,874:    477  60  58
1720780446,874:    792  60  58
1720780446,874:   1367  60  58
1720780446,874:   1408  60  58
1720780446,905:    801  60  58
1720780446,905:    300  60  58
1720780446,905:    517  60  58
1720780446,905:   1116  60  58
1720780446,905:   1278  60  58
1720780446,905:    788  60  58
1720780446,905:    325  60  58
1720780446,905:    545  60  58
1720780446,905:   1190  60  58
1720780446,905:   1443  60  58
1720780446,905:    982  60  58
1720780446,905:    394  60  58
1720780446,905:    352  60  58
1720780446,905:    707  60  58
1720780446,905:    701  60  58
1720780446,937:    -11  60  58
1720780446,937:   -865  60  58
1720780446,937:  -1101  60  58
1720780446,937:   -725  60  58
1720780446,937:   -409  60  58
1720780446,937:   -519  60  58
1720780446,937:   -555  60  58
1720780446,937:    242  60  58
1720780446,937:   1893  60  58
1720780446,937:   3653  60  58
1720780446,937:   4951  60  58
1720780446,937:   6057  60  58
1720780446,937:   7617  60  58
1720780446,937:   9657  60  58
1720780446,937:  11450  60  58
1720780446,967:  12380  62  59
1720780446,967:  12683  62  59
1720780446,967:  13065  62  59
1720780446,967:  13666  62  59
1720780446,967:  13817  62  59
1720780446,967:  12861  62  59
1720780446,967:  10997  62  59
1720780446,967:   9046  62  59
1720780446,967:   7458  62  59
1720780446,967:   5904  62  59
1720780446,967:   3938  62  59
1720780446,967:   1785  62  59
1720780446,967:    180  62  59
1720780446,967:   -555  62  59
1720780446,967:   -892  62  59
1720780446,997:  -1421  62  59
1720780446,997:  -2044  62  59
1720780446,997:  -2148  62  59
1720780446,997:  -1561  62  59
1720780446,997:   -958  62  59
1720780446,997:  -1100  62  59
1720780446,997:  -1890  62  59
1720780446,997:  -2468  62  59
1720780446,997:  -2314  62  59
1720780446,997:  -1882  62  59
1720780446,997:  -1958  62  59
1720780446,997:  -2600  62  59
1720780446,997:  -3055  62  59
1720780446,997:  -2762  62  59
1720780446,997:  -2106  62  59
1720780447,028:  -1895  62  59
1720780447,028:  -2300  62  59
1720780447,028:  -2638  62  59
1720780447,028:  -2327  62  59
1720780447,028:  -1697  62  59
1720780447,028:  -1546  62  59
1720780447,028:  -2061  62  59
1720780447,028:  -2530  62  59
1720780447,028:  -2270  62  59
1720780447,028:  -1544  62  59
1720780447,028:  -1201  62  59
1720780447,028:  -1580  62  59
1720780447,028:  -2056  62  59
1720780447,028:  -1894  62  59
1720780447,028:  -1245  62  59
1720780447,060:   -923  62  59
1720780447,060:  -1312  62  59
1720780447,060:  -1830  62  59
1720780447,060:  -1701  62  59
1720780447,060:  -1002  62  59
1720780447,060:   -556  62  59
1720780447,060:   -857  62  59
1720780447,060:  -1409  62  59
1720780447,092:  -1392  62  59
1720780447,092:   -763  62  59
1720780447,092:   -284  62  59
1720780447,092:   -503  62  59
1720780447,092:  -1023  62  59
1720780447,092:  -1037  62  59
1720780447,092:   -441  62  59
1720780447,092:     37  62  59
1720780447,092:   -196  62  59
1720780447,092:   -799  62  59
1720780447,092:   -933  62  59
1720780447,092:   -389  62  59
1720780447,092:    152  62  59
1720780447,092:     32  62  59
1720780447,092:   -517  62  59
1720780447,092:   -686  62  59
1720780447,092:   -197  62  59
1720780447,092:    329  62  59
1720780447,092:    205  62  59
1720780447,092:   -404  62  59
1720780447,092:   -683  62  59
1720780447,092:   -263  62  59
1720780447,122:    293  62  59
1720780447,122:    257  62  59
1720780447,122:   -297  62  59
1720780447,122:   -591  62  59
1720780447,122:   -206  62  59
1720780447,122:    346  62  59
1720780447,122:    315  62  59
1720780447,122:   -278  62  59
1720780447,122:   -642  62  59
1720780447,122:   -283  62  59
1720780447,122:    338  62  59
1720780447,122:    427  62  59
1720780447,122:    -92  62  59
1720780447,122:   -466  62  59
1720780447,122:   -146  62  59
1720780447,153:    470  62  59
1720780447,153:    574  62  59
1720780447,153:     23  62  59
1720780447,153:   -441  62  59
1720780447,153:   -188  62  59
1720780447,153:    464  62  59
1720780447,153:    680  62  59
1720780447,153:    219  62  59
1720780447,153:   -256  62  59
1720780447,153:    -73  62  59
1720780447,153:    528  62  59
1720780447,153:    729  62  59
1720780447,153:    224  62  59
1720780447,153:   -349  62  59
1720780447,153:   -253  62  59
1720780447,153:    370  62  59
1720780447,153:    706  62  59
1720780447,153:    340  62  59
1720780447,153:   -193  62  59
1720780447,153:   -139  62  59
1720780447,153:    450  62  59
1720780447,153:    802  62  59
1720780447,153:    452  62  59
1720780447,184:   -127  62  59
1720780447,184:   -149  62  59
1720780447,184:    429  62  59
1720780447,184:    869  62  59
1720780447,184:    639  62  59
1720780447,184:    118  62  59
1720780447,184:     86  62  59
1720780447,184:    647  62  59
1720780447,184:   1100  62  59
1720780447,184:    866  62  59
1720780447,184:    276  62  59
1720780447,184:    148  62  59
1720780447,184:    689  62  59
1720780447,184:   1231  62  59
1720780447,184:   1120  62  59
1720780447,215:    578  62  59
1720780447,215:    410  62  59
1720780447,215:    906  62  59
1720780447,215:   1452  62  59
1720780447,215:   1354  62  59
1720780447,215:    756  62  59
1720780447,215:    475  62  59
1720780447,215:    901  62  59
1720780447,215:   1493  62  59
1720780447,215:   1503  62  59
1720780447,215:    967  62  59
1720780447,215:    654  62  59
1720780447,215:   1018  62  59
1720780447,215:   1587  62  59
1720780447,215:   1601  62  59
1720780447,246:   1023  62  59
1720780447,246:    613  62  59
1720780447,246:    901  62  59
1720780447,246:   1485  62  59
1720780447,246:   1575  62  59
1720780447,246:   1049  62  59
1720780447,246:    618  62  59
1720780447,246:    864  62  59
1720780447,246:   1451  62  59
1720780447,246:   1583  62  59
1720780447,246:   1059  62  59
1720780447,246:    563  62  59
1720780447,246:    744  62  59
1720780447,246:   1351  62  59
1720780447,246:   1586  62  59
1720780447,276:   1163  62  59
1720780447,276:    684  62  59
1720780447,276:    811  62  59
1720780447,276:   1357  62  59
1720780447,276:   1556  62  59
1720780447,276:   1089  62  59
1720780447,276:    542  62  59
1720780447,276:    622  62  59
1720780447,276:   1201  62  59
1720780447,276:   1496  62  59
1720780447,276:   1108  62  59
1720780447,276:    557  62  59
1720780447,276:    589  62  59
1720780447,276:   1156  62  59
1720780447,276:   1491  62  59
1720780447,307:   1118  62  59
1720780447,307:    498  62  59
1720780447,307:    424  62  59
1720780447,307:    960  62  59
1720780447,307:   1377  62  59
1720780447,307:   1122  62  59
1720780447,307:    548  62  59
1720780447,307:    433  62  59
1720780447,307:    911  62  59
1720780447,307:   1302  62  59
1720780447,307:   1021  62  59
1720780447,307:    376  62  59
1720780447,307:    180  62  59
1720780447,307:    658  62  59
1720780447,307:   1160  62  59
1720780447,338:   1022  62  59
1720780447,338:    444  62  59
1720780447,338:    224  62  59
1720780447,338:    666  62  59
1720780447,338:   1175  62  59
1720780447,338:   1057  62  59
1720780447,338:    442  62  59
1720780447,338:    136  62  59
1720780447,338:    529  62  59
1720780447,338:   1090  62  59
1720780447,338:   1079  62  59
1720780447,338:    529  62  59
1720780447,338:    202  62  59
1720780447,338:    546  62  59
1720780447,338:   1091  62  59
1720780447,370:   1083  62  59
1720780447,370:    492  62  59
1720780447,370:     73  62  59
1720780447,370:    353  62  59
1720780447,370:    936  62  59
1720780447,370:   1042  62  59
1720780447,370:    544  62  59
1720780447,370:    130  62  59
1720780447,370:    368  62  59
1720780447,370:    925  62  59
1720780447,370:   1030  62  59
1720780447,370:    499  62  59
1720780447,370:      6  62  59
1720780447,370:    183  62  59
1720780447,370:    776  62  59
1720780447,401:    998  62  59
1720780447,401:    568  62  59
1720780447,401:     85  62  59
1720780447,401:    211  62  59
1720780447,401:    769  62  59
1720780447,401:    994  62  59
1720780447,401:    551  62  59
1720780447,401:      2  62  59
1720780447,401:     55  62  59
1720780447,401:    621  62  59
1720780447,401:    944  62  59
1720780447,401:    616  62  59
1720780447,401:    113  62  59
1720780447,401:    147  62  59
1720780447,401:    687  62  59
1720780447,432:   1006  62  59
1720780447,432:    652  62  59
1720780447,432:     72  62  59
1720780447,432:     34  62  59
1720780447,432:    594  62  59
1720780447,432:   1032  62  59
1720780447,432:    805  62  59
1720780447,432:    260  62  59
1720780447,432:    167  62  59
1720780447,432:    666  62  59
1720780447,432:   1090  62  59
1720780447,432:    854  62  59
1720780447,432:    243  62  59
1720780447,432:     47  62  59
1720780447,432:    502  62  59
1720780447,432:    987  62  59
1720780447,432:    862  62  59
1720780447,432:    310  62  59
1720780447,432:     98  62  59
1720780447,432:    525  62  59
1720780447,432:   1020  62  59
1720780447,432:    908  62  59
1720780447,464:    309  62  59
1720780447,464:      9  62  59
1720780447,464:    402  62  59
1720780447,464:    974  62  59
1720780447,464:    988  62  59
1720780447,464:    455  62  59
1720780447,464:    118  62  59
1720780447,464:    442  62  59
1720780447,464:    991  62  59
1720780447,464:   1022  62  59
1720780447,464:    478  62  59
1720780447,464:     83  62  59
1720780447,464:    366  62  59
1720780447,464:    958  62  59
1720780447,464:   1093  62  59
1720780447,496:    626  62  59
1720780447,496:    225  62  59
1720780447,496:    460  62  59
1720780447,496:   1018  62  59
1720780447,496:   1137  62  59
1720780447,496:    618  62  59
1720780447,496:    120  62  59
1720780447,496:    277  62  59
1720780447,496:    854  62  59
1720780447,496:   1070  62  59
1720780447,496:    637  62  59
1720780447,496:    143  62  59
1720780447,496:    252  62  59
1720780447,496:    805  62  59
1720780447,496:   1040  62  59
1720780447,526:    609  62  59
1720780447,526:     63  62  59
1720780447,526:    114  62  59
1720780447,526:    685  62  59
1720780447,526:   1026  62  59
1720780447,526:    710  62  59
1720780447,526:    196  62  59
1720780447,526:    199  62  59
1720780447,526:    714  62  59
1720780447,526:   1033  62  59
1720780447,526:    692  62  59
1720780447,526:    107  62  59
1720780447,526:     28  62  59
1720780447,526:    531  62  59
1720780447,526:    936  62  59
1720780447,558:    713  62  59
1720780447,558:    184  62  59
1720780447,558:     84  62  59
1720780447,558:    547  62  59
1720780447,558:    935  62  59
1720780447,558:    691  62  59
1720780447,558:     99  62  59
1720780447,558:    -81  62  59
1720780447,558:    366  62  59
1720780447,558:    831  62  59
1720780447,558:    701  62  59
1720780447,558:    167  62  59
1720780447,558:    -27  62  59
1720780447,590:    394  62  59
1720780447,590:    871  62  59
1720780447,590:    753  62  59
1720780447,590:    171  62  59
1720780447,590:   -118  62  59
1720780447,590:    254  62  59
1720780447,590:    785  62  59
1720780447,590:    779  62  59
1720780447,590:    268  62  59
1720780447,590:    -30  62  59
1720780447,590:    308  62  59
1720780447,590:    834  62  59
1720780447,590:    838  62  59
1720780447,590:    287  62  59
1720780447,590:   -103  62  59
1720780447,620:    173  62  59
1720780447,620:    738  62  59
1720780447,620:    849  62  59
1720780447,620:    380  62  59
1720780447,620:    -10  62  59
1720780447,620:    222  62  59
1720780447,620:    761  62  59
1720780447,620:    869  62  59
1720780447,620:    364  62  59
1720780447,620:   -111  62  59
1720780447,620:     51  62  59
1720780447,620:    605  62  59
1720780447,620:    803  62  59
1720780447,620:    382  62  59
1720780447,620:    -77  62  59
1720780447,651:     57  62  59
1720780447,651:    603  62  59
1720780447,651:    821  62  59
1720780447,651:    392  62  59
1720780447,651:   -138  62  59
1720780447,651:    -83  62  59
1720780447,651:    460  62  59
1720780447,651:    762  62  59
1720780447,651:    428  62  59
1720780447,651:    -76  62  59
1720780447,651:    -57  62  59
1720780447,651:    457  62  59
1720780447,651:    766  62  59
1720780447,651:    428  62  59
1720780447,651:   -135  62  59
1720780447,651:   -187  62  59
1720780447,651:    330  62  59
1720780447,651:    738  62  59
1720780447,651:    519  62  59
1720780447,651:     -4  62  59
1720780447,651:   -104  62  59
1720780447,651:    354  62  59
1720780447,682:    747  62  59
1720780447,682:    526  62  59
1720780447,682:    -39  62  59
1720780447,682:   -205  62  59
1720780447,682:    238  62  59
1720780447,682:    700  62  59
1720780447,682:    580  62  59
1720780447,682:     63  62  59
1720780447,682:   -123  62  59
1720780447,682:    294  62  59
1720780447,682:    764  62  59
1720780447,682:    654  62  59
1720780447,682:     93  62  59
1720780447,682:   -173  62  59
1720780447,682:    216  62  59
1720780447,712:    761  62  59
1720780447,712:    771  62  59
1720780447,712:    275  62  59
1720780447,712:    -26  62  59
1720780447,712:    286  62  59
1720780447,712:    782  62  59
1720780447,712:    776  62  59
1720780447,712:    241  62  59
1720780447,712:   -127  62  59
1720780447,712:    152  62  59
1720780447,712:    701  62  59
1720780447,712:    798  62  59
1720780447,712:    331  62  59
1720780447,712:    -46  62  59
1720780447,712:    193  62  59
1720780447,744:    733  62  59
1720780447,744:    848  62  59
1720780447,744:    363  62  59
1720780447,744:    -85  62  59
1720780447,744:    100  62  59
1720780447,744:    676  62  59
1720780447,744:    894  62  59
1720780447,744:    486  62  59
1720780447,744:     21  62  59
1720780447,744:    136  62  59
1720780447,744:    667  62  59
1720780447,744:    886  62  59
1720780447,744:    466  62  59
1720780447,744:    -56  62  59
1720780447,744:      6  62  59
1720780447,775:    573  62  59
1720780447,775:    912  62  59
1720780447,775:    608  62  59
1720780447,775:    112  62  59
1720780447,775:    129  62  59
1720780447,775:    656  62  59
1720780447,775:    991  62  59
1720780447,775:    666  62  59
1720780447,775:     87  62  59
1720780447,775:     -1  62  59
1720780447,775:    494  62  59
1720780447,775:    901  62  59
1720780447,775:    683  62  59
1720780447,775:    144  62  59
1720780447,775:     18  62  59
1720780447,807:    464  62  59
1720780447,807:    863  62  59
1720780447,807:    645  62  59
1720780447,807:     51  62  59
1720780447,807:   -168  62  59
1720780447,807:    233  62  59
1720780447,807:    694  62  59
1720780447,807:    601  62  59
1720780447,807:     99  62  59
1720780447,807:   -108  62  59
1720780447,807:    269  62  59
1720780447,807:    716  62  59
1720780447,807:    611  62  59
1720780447,807:     57  62  59
1720780447,807:   -233  62  59
1720780447,839:    100  62  59
1720780447,839:    589  62  59
1720780447,839:    575  62  59
1720780447,839:     86  62  59
1720780447,839:   -190  62  59
1720780447,839:    162  62  59
1720780447,839:    719  62  59
1720780447,839:    787  62  59
1720780447,839:    293  62  59
1720780447,839:   -122  62  59
1720780447,839:      0  62  59
1720780447,839:    310  62  59
1720780447,839:    125  62  59
1720780447,839:   -655  62  59
1720780447,839:  -1367  62  59
1720780447,871:  -1431  62  59
1720780447,871:  -1058  62  59
1720780447,871:   -881  62  59
1720780447,871:  -1041  62  59
1720780447,871:   -917  62  59
1720780447,871:     90  62  59
1720780447,871:   1774  62  59
1720780447,871:   3388  62  59
1720780447,871:   4574  62  59
1720780447,871:   5755  62  59
1720780447,871:   7465  62  59
1720780447,871:   9525  62  59
1720780447,871:  11193  62  59
1720780447,871:  12048  62  59
1720780447,871:  12469  62  59
1720780447,871:  13035  62  59
1720780447,871:  13648  62  59
1720780447,871:  13580  62  59
1720780447,871:  12370  62  59
1720780447,871:  10427  62  59
1720780447,871:   8551  62  59
1720780447,871:   7005  62  59
1720780447,871:   5384  62  59
1720780447,903:   3359  66  62
1720780447,903:   1298  66  62
1720780447,903:   -111  66  62
1720780447,903:   -724  66  62
1720780447,903:  -1080  66  62
1720780447,903:  -1645  66  62
1720780447,903:  -2197  66  62
1720780447,903:  -2193  66  62
1720780447,903:  -1656  66  62
1720780447,903:  -1302  66  62
1720780447,903:  -1699  66  62
1720780447,903:  -2531  66  62
1720780447,903:  -2969  66  62
1720780447,903:  -2721  66  62
1720780447,903:  -2368  66  62
1720780447,934:  -2559  66  62
1720780447,934:  -3147  66  62
1720780447,934:  -3383  66  62
1720780447,934:  -2937  66  62
1720780447,934:  -2342  66  62
1720780447,934:  -2297  66  62
1720780447,934:  -2753  66  62
1720780447,934:  -2996  66  62
1720780447,934:  -2641  66  62
1720780447,934:  -2155  66  62
1720780447,934:  -2216  66  62
1720780447,934:  -2772  66  62
1720780447,934:  -3066  66  62
1720780447,934:  -2639  66  62
1720780447,934:  -1943  66  62
1720780447,965:  -1760  66  62
1720780447,965:  -2193  66  62
1720780447,965:  -2545  66  62
1720780447,965:  -2274  66  62
1720780447,965:  -1713  66  62
1720780447,965:  -1592  66  62
1720780447,965:  -2047  66  62
1720780447,965:  -2404  66  62
1720780447,965:  -2093  66  62
1720780447,965:  -1431  66  62
1720780447,965:  -1209  66  62
1720780447,965:  -1668  66  62
1720780447,965:  -2143  66  62
1720780447,965:  -1967  66  62
1720780447,965:  -1355  66  62
1720780447,965:  -1093  66  62
1720780447,965:  -1492  66  62
1720780447,965:  -1953  66  62
1720780447,965:  -1772  66  62
1720780447,965:  -1113  66  62
1720780447,965:   -787  66  62
1720780447,965:  -1193  66  62
1720780447,996:  -1781  66  62
1720780447,996:  -1777  66  62
1720780447,996:  -1203  66  62
1720780447,996:   -822  66  62
1720780447,996:  -1116  66  62
1720780447,996:  -1659  66  62
1720780447,996:  -1686  66  62
1720780447,996:  -1126  66  62
1720780448,028:   -657  66  62
1720780448,028:   -804  66  62
1720780448,028:  -1240  66  62
1720780448,028:  -1239  66  62
1720780448,028:   -672  66  62
1720780448,028:   -162  66  62
1720780448,028:   -250  66  62
1720780448,028:   -677  66  62
1720780448,028:   -763  66  62
1720780448,028:   -352  66  62
1720780448,028:    -16  66  62
1720780448,028:   -255  66  62
1720780448,028:   -796  66  62
1720780448,028:   -926  66  62
1720780448,028:   -482  66  62
1720780448,060:    -56  66  62
1720780448,060:   -186  66  62
1720780448,060:   -618  66  62
1720780448,060:   -653  66  62
1720780448,060:   -174  66  62
1720780448,060:    149  66  62
1720780448,060:   -253  66  62
1720780448,060:  -1052  66  62
1720780448,060:  -1377  66  62
1720780448,060:   -969  66  62
1720780448,060:   -534  66  62
1720780448,060:   -815  66  62
1720780448,060:  -1601  66  62
1720780448,060:  -1984  66  62
1720780448,060:  -1536  66  62
1720780448,060:   -872  66  62
1720780448,060:   -843  66  62
1720780448,060:  -1461  66  62
1720780448,060:  -1908  66  62
1720780448,060:  -1629  66  62
1720780448,060:  -1034  66  62
1720780448,060:   -912  66  62
1720780448,092:  -1396  66  62
1720780448,092:  -1816  66  62
1720780448,092:  -1621  66  62
1720780448,092:  -1122  66  62
1720780448,092:  -1043  66  62
1720780448,092:  -1542  66  62
1720780448,092:  -1972  66  62
1720780448,092:  -1738  66  62
1720780448,092:  -1098  66  62
1720780448,092:   -829  66  62
1720780448,092:  -1218  66  62
1720780448,092:  -1688  66  62
1720780448,092:  -1574  66  62
1720780448,092:  -1027  66  62
1720780448,092:   -791  66  62
1720780448,123:  -1212  66  62
1720780448,123:  -1750  66  62
1720780448,123:  -1691  66  62
1720780448,123:  -1108  66  62
1720780448,123:   -745  66  62
1720780448,123:  -1040  66  62
1720780448,123:  -1542  66  62
1720780448,123:  -1529  66  62
1720780448,123:  -1013  66  62
1720780448,123:   -721  66  62
1720780448,123:  -1129  66  62
1720780448,123:  -1797  66  62
1720780448,123:  -1925  66  62
1720780448,123:  -1418  66  62
1720780448,123:   -999  66  62
1720780448,154:  -1247  66  62
1720780448,154:  -1832  66  62
1720780448,154:  -1947  66  62
1720780448,154:  -1419  66  62
1720780448,154:   -951  66  62
1720780448,154:  -1210  66  62
1720780448,154:  -1946  66  62
1720780448,154:  -2304  66  62
1720780448,185:  -1953  66  62
1720780448,185:  -1495  66  62
1720780448,185:  -1650  66  62
1720780448,185:  -2304  66  62
1720780448,185:  -2669  66  62
1720780448,185:  -2342  66  62
1720780448,185:  -1823  66  62
1720780448,185:  -1823  66  62
1720780448,185:  -2314  66  62
1720780448,185:  -2570  66  62
1720780448,185:  -2180  66  62
1720780448,185:  -1609  66  62
1720780448,185:  -1569  66  62
1720780448,185:  -2061  66  62
1720780448,185:  -2354  66  62
1720780448,185:  -1977  66  62
1720780448,185:  -1367  66  62
1720780448,185:  -1294  66  62
1720780448,185:  -1846  66  62
1720780448,185:  -2275  66  62
1720780448,185:  -1992  66  62
1720780448,185:  -1341  66  62
1720780448,216:  -1134  66  62
1720780448,216:  -1577  66  62
1720780448,216:  -1988  66  62
1720780448,216:  -1711  66  62
1720780448,216:  -1017  66  62
1720780448,216:   -744  66  62
1720780448,216:  -1204  66  62
1720780448,216:  -1747  66  62
1720780448,216:  -1617  66  62
1720780448,216:   -962  66  62
1720780448,216:   -619  66  62
1720780448,216:  -1009  66  62
1720780448,216:  -1560  66  62
1720780448,216:  -1468  66  62
1720780448,216:   -783  66  62
1720780448,248:   -335  66  62
1720780448,248:   -652  66  62
1720780448,248:  -1249  66  62
1720780448,248:  -1279  66  62
1720780448,248:   -674  66  62
1720780448,248:   -216  66  62
1720780448,248:   -490  66  62
1720780448,248:  -1091  66  62
1720780448,248:  -1156  66  62
1720780448,248:   -536  66  62
1720780448,248:     12  66  62
1720780448,248:   -183  66  62
1720780448,248:   -820  66  62
1720780448,248:  -1021  66  62
1720780448,248:   -518  66  62
1720780448,279:     19  66  62
1720780448,279:   -114  66  62
1720780448,279:   -716  66  62
1720780448,279:   -954  66  62
1720780448,279:   -506  66  62
1720780448,279:     21  66  62
1720780448,279:    -84  66  62
1720780448,279:   -679  66  62
1720780448,279:   -941  66  62
1720780448,279:   -490  66  62
1720780448,279:    103  66  62
1720780448,279:     82  66  62
1720780448,279:   -489  66  62
1720780448,279:   -807  66  62
1720780448,279:   -423  66  62
1720780448,311:    155  66  62
1720780448,311:    146  66  62
1720780448,311:   -463  66  62
1720780448,311:   -871  66  62
1720780448,311:   -542  66  62
1720780448,311:     92  66  62
1720780448,311:    220  66  62
1720780448,311:   -273  66  62
1720780448,311:   -660  66  62
1720780448,311:   -368  66  62
1720780448,311:    232  66  62
1720780448,311:    333  66  62
1720780448,311:   -230  66  62
1720780448,311:   -723  66  62
1720780448,311:   -491  66  62
1720780448,343:    167  66  62
1720780448,343:    406  66  62
1720780448,343:    -51  66  62
1720780448,343:   -541  66  62
1720780448,343:   -361  66  62
1720780448,343:    273  66  62
1720780448,343:    523  66  62
1720780448,343:     39  66  62
1720780448,343:   -548  66  62
1720780448,343:   -466  66  62
1720780448,343:    165  66  62
1720780448,343:    511  66  62
1720780448,343:    131  66  62
1720780448,343:   -433  66  62
1720780448,343:   -389  66  62
1720780448,374:    223  66  62
1720780448,374:    590  66  62
1720780448,374:    207  66  62
1720780448,374:   -436  66  62
1720780448,374:   -494  66  62
1720780448,374:     97  66  62
1720780448,374:    553  66  62
1720780448,374:    287  66  62
1720780448,374:   -313  66  62
1720780448,374:   -406  66  62
1720780448,374:    146  66  62
1720780448,374:    599  66  62
1720780448,374:    318  66  62
1720780448,374:   -367  66  62
1720780448,374:   -580  66  62
1720780448,374:    -78  66  62
1720780448,374:    442  66  62
1720780448,374:    277  66  62
1720780448,374:   -348  66  62
1720780448,374:   -575  66  62
1720780448,374:    -88  66  62
1720780448,374:    468  66  62
1720780448,374:    344  66  62
1720780448,405:   -310  66  62
1720780448,405:   -630  66  62
1720780448,405:   -197  66  62
1720780448,405:    409  66  62
1720780448,405:    393  66  62
1720780448,405:   -203  66  62
1720780448,405:   -556  66  62
1720780448,405:   -184  66  62
1720780448,405:    404  66  62
1720780448,405:    398  66  62
1720780448,405:   -234  66  62
1720780448,405:   -677  66  62
1720780448,405:   -365  66  62
1720780448,405:    273  66  62
1720780448,405:    396  66  62
1720780448,435:   -130  66  62
1720780448,435:   -557  66  62
1720780448,435:   -276  66  62
1720780448,435:    351  66  62
1720780448,435:    486  66  62
1720780448,435:    -71  66  62
1720780448,435:   -588  66  62
1720780448,435:   -376  66  62
1720780448,435:    283  66  62
1720780448,435:    531  66  62
1720780448,435:     62  66  62
1720780448,435:   -466  66  62
1720780448,435:   -322  66  62
1720780448,435:    303  66  62
1720780448,435:    566  66  62
1720780448,466:     85  66  62
1720780448,466:   -524  66  62
1720780448,466:   -467  66  62
1720780448,466:    170  66  62
1720780448,466:    554  66  62
1720780448,466:    208  66  62
1720780448,466:   -357  66  62
1720780448,466:   -334  66  62
1720780448,466:    272  66  62
1720780448,466:    665  66  62
1720780448,466:    312  66  62
1720780448,466:   -333  66  62
1720780448,466:   -424  66  62
1720780448,466:    138  66  62
1720780448,466:    591  66  62
1720780448,498:    333  66  62
1720780448,498:   -277  66  62
1720780448,498:   -395  66  62
1720780448,498:    151  66  62
1720780448,498:    634  66  62
1720780448,498:    395  66  62
1720780448,498:   -271  66  62
1720780448,498:   -489  66  62
1720780448,498:     15  66  62
1720780448,498:    558  66  62
1720780448,498:    413  66  62
1720780448,498:   -225  66  62
1720780448,498:   -495  66  62
1720780448,498:    -41  66  62
1720780448,498:    512  66  62
1720780448,529:    396  66  62
1720780448,529:   -275  66  62
1720780448,529:   -630  66  62
1720780448,529:   -214  66  62
1720780448,529:    415  66  62
1720780448,529:    435  66  62
1720780448,529:   -150  66  62
1720780448,529:   -517  66  62
1720780448,529:   -147  66  62
1720780448,529:    472  66  62
1720780448,529:    503  66  62
1720780448,529:   -126  66  62
1720780448,529:   -600  66  62
1720780448,529:   -311  66  62
1720780448,529:    336  66  62
1720780448,560:    482  66  62
1720780448,560:    -47  66  62
1720780448,560:   -507  66  62
1720780448,560:   -246  66  62
1720780448,560:    400  66  62
1720780448,560:    569  66  62
1720780448,560:     13  66  62
1720780448,560:   -538  66  62
1720780448,560:   -358  66  62
1720780448,560:    307  66  62
1720780448,560:    580  66  62
1720780448,560:    115  66  62
1720780448,560:   -434  66  62
1720780448,560:   -293  66  62
1720780448,560:    370  66  62
1720780448,560:    675  66  62
1720780448,560:    190  66  62
1720780448,560:   -471  66  62
1720780448,560:   -455  66  62
1720780448,592:    190  66  62
1720780448,592:    598  66  62
1720780448,592:    237  66  62
1720780448,592:   -377  66  62
1720780448,592:   -372  66  62
1720780448,592:    284  66  62
1720780448,592:    737  66  62
1720780448,592:    372  66  62
1720780448,592:   -361  66  62
1720780448,592:   -526  66  62
1720780448,592:     42  66  62
1720780448,592:    547  66  62
1720780448,592:    292  66  62
1720780448,592:   -384  66  62
1720780448,592:   -559  66  62
1720780448,623:     10  66  62
1720780448,623:    566  66  62
1720780448,623:    358  66  62
1720780448,623:   -354  66  62
1720780448,623:   -629  66  62
1720780448,623:   -115  66  62
1720780448,623:    492  66  62
1720780448,623:    385  66  62
1720780448,623:   -281  66  62
1720780448,623:   -583  66  62
1720780448,623:    -91  66  62
1720780448,623:    554  66  62
1720780448,623:    489  66  62
1720780448,623:   -226  66  62
1720780448,623:   -666  66  62
1720780448,654:   -285  66  62
1720780448,654:    373  66  62
1720780448,654:    415  66  62
1720780448,654:   -212  66  62
1720780448,654:   -642  66  62
1720780448,654:   -268  66  62
1720780448,654:    440  66  62
1720780448,654:    567  66  62
1720780448,654:    -41  66  62
1720780448,654:   -580  66  62
1720780448,654:   -397  66  62
1720780448,654:    112  66  62
1720780448,654:     34  66  62
1720780448,654:   -846  66  62
1720780448,654:  -1721  66  62
1720780448,686:  -1812  66  62
1720780448,686:  -1369  66  62
1720780448,686:  -1257  66  62
1720780448,686:  -1736  66  62
1720780448,686:  -2017  66  62
1720780448,686:  -1247  66  62
1720780448,686:    393  66  62
1720780448,686:   1952  66  62
1720780448,686:   2936  66  62
1720780448,686:   3903  66  62
1720780448,686:   5629  66  62
1720780448,686:   7960  66  62
1720780448,686:   9937  66  62
1720780448,686:  10953  66  62
1720780448,686:  11457  66  62
1720780448,717:  12233  74  66
1720780448,717:  13219  74  66
1720780448,717:  13511  74  66
1720780448,717:  12495  74  66
1720780448,717:  10649  74  66
1720780448,717:   8947  74  66
1720780448,717:   7642  74  66
1720780448,717:   6117  74  66
1720780448,717:   3912  74  66
1720780448,717:   1553  74  66
1720780448,717:     17  74  66
1720780448,717:   -487  74  66
1720780448,717:   -744  74  66
1720780448,717:  -1473  74  66
1720780448,717:  -2389  74  66
1720780448,748:  -2625  74  66
1720780448,748:  -2017  74  66
1720780448,748:  -1443  74  66
1720780448,748:  -1780  74  66
1720780448,748:  -2798  74  66
1720780448,748:  -3444  74  66
1720780448,748:  -3216  74  66
1720780448,748:  -2745  74  66
1720780448,748:  -2906  74  66
1720780448,748:  -3635  74  66
1720780448,748:  -4014  74  66
1720780448,748:  -3530  74  66
1720780448,748:  -2779  74  66
1720780448,748:  -2679  74  66
1720780448,748:  -3270  74  66
1720780448,748:  -3659  74  66
1720780448,748:  -3255  74  66
1720780448,748:  -2569  74  66
1720780448,748:  -2515  74  66
1720780448,748:  -3175  74  66
1720780448,748:  -3636  74  66
1720780448,748:  -3201  74  66
1720780448,748:  -2328  74  66
1720780448,780:  -2026  74  66
1720780448,780:  -2550  74  66
1720780448,780:  -3069  74  66
1720780448,780:  -2799  74  66
1720780448,780:  -2050  74  66
1720780448,780:  -1784  74  66
1720780448,780:  -2317  74  66
1720780448,780:  -2870  74  66
1720780448,780:  -2609  74  66
1720780448,780:  -1779  74  66
1720780448,780:  -1378  74  66
1720780448,780:  -1853  74  66
1720780448,780:  -2496  74  66
1720780448,780:  -2395  74  66
1720780448,780:  -1651  74  66
1720780448,812:  -1214  74  66
1720780448,812:  -1614  74  66
1720780448,812:  -2240  74  66
1720780448,812:  -2169  74  66
1720780448,812:  -1420  74  66
1720780448,812:   -921  74  66
1720780448,812:  -1287  74  66
1720780448,844:  -1990  74  66
1720780448,844:  -2059  74  66
1720780448,844:  -1388  74  66
1720780448,844:   -851  74  66
1720780448,844:  -1126  74  66
1720780448,844:  -1786  74  66
1720780448,844:  -1864  74  66
1720780448,844:  -1183  74  66
1720780448,844:   -591  74  66
1720780448,844:   -843  74  66
1720780448,844:  -1582  74  66
1720780448,844:  -1798  74  66
1720780448,844:  -1185  74  66
1720780448,844:   -531  74  66
1720780448,844:   -671  74  66
1720780448,844:  -1370  74  66
1720780448,844:  -1635  74  66
1720780448,844:  -1063  74  66
1720780448,844:   -380  74  66
1720780448,844:   -480  74  66
1720780448,844:  -1231  74  66
1720780448,844:  -1626  74  66
1720780448,844:  -1140  74  66
1720780448,876:   -408  74  66
1720780448,876:   -372  74  66
1720780448,876:  -1032  74  66
1720780448,876:  -1444  74  66
1720780448,876:  -1008  74  66
1720780448,876:   -278  74  66
1720780448,876:   -214  74  66
1720780448,876:   -905  74  66
1720780448,876:  -1424  74  66
1720780448,876:  -1080  74  66
1720780448,876:   -330  74  66
1720780448,876:   -158  74  66
1720780448,876:   -762  74  66
1720780448,876:  -1283  74  66
1720780448,876:   -976  74  66
1720780448,907:   -221  74  66
1720780448,907:     -9  74  66
1720780448,907:   -632  74  66
1720780448,907:  -1262  74  66
1720780448,907:  -1062  74  66
1720780448,907:   -298  74  66
1720780448,907:     37  74  66
1720780448,907:   -459  74  66
1720780448,907:  -1060  74  66
1720780448,907:   -901  74  66
1720780448,907:   -163  74  66
1720780448,907:    183  74  66
1720780448,907:   -340  74  66
1720780448,907:  -1046  74  66
1720780448,907:  -1001  74  66
1720780448,939:   -269  74  66
1720780448,939:    191  74  66
1720780448,939:   -195  74  66
1720780448,939:   -850  74  66
1720780448,939:   -829  74  66
1720780448,939:   -110  74  66
1720780448,939:    385  74  66
1720780448,939:     10  74  66
1720780448,939:   -722  74  66
1720780448,939:   -815  74  66
1720780448,939:   -128  74  66
1720780448,939:    453  74  66
1720780448,939:    202  74  66
1720780448,939:   -480  74  66
1720780448,939:   -606  74  66
1720780448,939:     45  74  66
1720780448,939:    634  74  66
1720780448,939:    375  74  66
1720780448,939:   -397  74  66
1720780448,939:   -649  74  66
1720780448,939:    -41  74  66
1720780448,939:    638  74  66
1720780448,971:    519  74  66
1720780448,971:   -191  74  66
1720780448,971:   -486  74  66
1720780448,971:     63  74  66
1720780448,971:    734  74  66
1720780448,971:    613  74  66
1720780448,971:   -180  74  66
1720780448,971:   -622  74  66
1720780448,971:   -158  74  66
1720780448,971:    576  74  66
1720780448,971:    606  74  66
1720780448,971:    -90  74  66
1720780448,971:   -555  74  66
1720780448,971:   -159  74  66
1720780448,971:    554  74  66
1720780449,002:    607  74  66
1720780449,002:   -114  74  66
1720780449,002:   -682  74  66
1720780449,002:   -377  74  66
1720780449,002:    364  74  66
1720780449,002:    550  74  66
1720780449,002:    -47  74  66
1720780449,002:   -591  74  66
1720780449,002:   -332  74  66
1720780449,002:    377  74  66
1720780449,002:    561  74  66
1720780449,002:    -75  74  66
1720780449,002:   -718  74  66
1720780449,002:   -539  74  66
1720780449,002:    209  74  66
1720780449,034:    541  74  66
1720780449,034:     43  74  66
1720780449,034:   -577  74  66
1720780449,034:   -457  74  66
1720780449,034:    247  74  66
1720780449,034:    581  74  66
1720780449,034:     63  74  66
1720780449,034:   -652  74  66
1720780449,034:   -637  74  66
1720780449,034:     67  74  66
1720780449,034:    524  74  66
1720780449,034:    147  74  66
1720780449,034:   -518  74  66
1720780449,034:   -538  74  66
1720780449,034:    135  74  66
1720780449,065:    607  74  66
1720780449,065:    227  74  66
1720780449,065:   -524  74  66
1720780449,065:   -659  74  66
1720780449,065:     -9  74  66
1720780449,065:    573  74  66
1720780449,065:    344  74  66
1720780449,065:   -343  74  66
1720780449,065:   -522  74  66
1720780449,065:     69  74  66
1720780449,065:    641  74  66
1720780449,065:    414  74  66
1720780449,065:   -332  74  66
1720780449,065:   -612  74  66
1720780449,065:    -62  74  66
1720780449,096:    588  74  66
1720780449,096:    495  74  66
1720780449,096:   -180  74  66
1720780449,096:   -489  74  66
1720780449,096:      3  74  66
1720780449,096:    634  74  66
1720780449,096:    536  74  66
1720780449,096:   -205  74  66
1720780449,096:   -630  74  66
1720780449,096:   -205  74  66
1720780449,096:    487  74  66
1720780449,096:    535  74  66
1720780449,096:    -92  74  66
1720780449,096:   -500  74  66
1720780449,096:   -103  74  66
1720780449,128:    583  74  66
1720780449,128:    633  74  66
1720780449,128:    -54  74  66
1720780449,128:   -587  74  66
1720780449,128:   -280  74  66
1720780449,128:    436  74  66
1720780449,128:    602  74  66
1720780449,128:      5  74  66
1720780449,128:   -533  74  66
1720780449,128:   -274  74  66
1720780449,128:    433  74  66
1720780449,128:    626  74  66
1720780449,128:      8  74  66
1720780449,128:   -626  74  66
1720780449,128:   -456  74  66
1720780449,159:    271  74  66
1720780449,159:    585  74  66
1720780449,159:     87  74  66
1720780449,159:   -517  74  66
1720780449,159:   -372  74  66
1720780449,159:    349  74  66
1720780449,159:    682  74  66
1720780449,159:    145  74  66
1720780449,159:   -591  74  66
1720780449,159:   -581  74  66
1720780449,159:    134  74  66
1720780449,159:    605  74  66
1720780449,159:    236  74  66
1720780449,159:   -429  74  66
1720780449,159:   -450  74  66
1720780449,159:    224  74  66
1720780449,159:    697  74  66
1720780449,159:    316  74  66
1720780449,159:   -434  74  66
1720780449,159:   -566  74  66
1720780449,159:     77  74  66
1720780449,159:    630  74  66
1720780449,159:    362  74  66
1720780449,191:   -347  74  66
1720780449,191:   -510  74  66
1720780449,191:    116  74  66
1720780449,191:    705  74  66
1720780449,191:    454  74  66
1720780449,191:   -341  74  66
1720780449,191:   -653  74  66
1720780449,222:   -103  74  66
1720780449,222:    560  74  66
1720780449,222:    461  74  66
1720780449,222:   -240  74  66
1720780449,222:   -562  74  66
1720780449,222:    -50  74  66
1720780449,222:    618  74  66
1720780449,222:    535  74  66
1720780449,222:   -222  74  66
1720780449,222:   -669  74  66
1720780449,222:   -237  74  66
1720780449,222:    484  74  66
1720780449,222:    542  74  66
1720780449,222:   -115  74  66
1720780449,222:   -566  74  66
1720780449,222:   -182  74  66
1720780449,222:    528  74  66
1720780449,222:    600  74  66
1720780449,222:   -100  74  66
1720780449,222:   -663  74  66
1720780449,222:   -364  74  66
1720780449,222:    382  74  66
1720780449,222:    586  74  66
1720780449,253:      4  74  66
1720780449,253:   -537  74  66
1720780449,253:   -264  74  66
1720780449,253:    480  74  66
1720780449,253:    700  74  66
1720780449,253:     70  74  66
1720780449,253:   -600  74  66
1720780449,253:   -441  74  66
1720780449,253:    313  74  66
1720780449,253:    652  74  66
1720780449,253:    131  74  66
1720780449,253:   -529  74  66
1720780449,253:   -413  74  66
1720780449,253:    343  74  66
1720780449,253:    736  74  66
1720780449,285:    218  74  66
1720780449,285:   -552  74  66
1720780449,285:   -578  74  66
1720780449,285:    139  74  66
1720780449,285:    629  74  66
1720780449,285:    243  74  66
1720780449,285:   -480  74  66
1720780449,285:   -540  74  66
1720780449,285:    158  74  66
1720780449,285:    684  74  66
1720780449,285:    313  74  66
1720780449,285:   -492  74  66
1720780449,285:   -683  74  66
1720780449,285:    -37  74  66
1720780449,285:    573  74  66
1720780449,317:    341  74  66
1720780449,317:   -390  74  66
1720780449,317:   -595  74  66
1720780449,317:     31  74  66
1720780449,317:    663  74  66
1720780449,317:    439  74  66
1720780449,317:   -376  74  66
1720780449,317:   -724  74  66
1720780449,317:   -173  74  66
1720780449,317:    522  74  66
1720780449,317:    428  74  66
1720780449,317:   -319  74  66
1720780449,317:   -696  74  66
1720780449,317:   -184  74  66
1720780449,317:    535  74  66
1720780449,348:    489  74  66
1720780449,348:   -290  74  66
1720780449,348:   -782  74  66
1720780449,348:   -360  74  66
1720780449,348:    390  74  66
1720780449,348:    462  74  66
1720780449,348:   -226  74  66
1720780449,348:   -715  74  66
1720780449,348:   -315  74  66
1720780449,348:    453  74  66
1720780449,348:    556  74  66
1720780449,348:   -176  74  66
1720780449,348:   -789  74  66
1720780449,348:   -482  74  66
1720780449,348:    329  74  66
1720780449,380:    582  74  66
1720780449,380:    -20  74  66
1720780449,380:   -605  74  66
1720780449,380:   -323  74  66
1720780449,380:    486  74  66
1720780449,380:    742  74  66
1720780449,380:     57  74  66
1720780449,380:   -713  74  66
1720780449,380:   -601  74  66
1720780449,380:    188  74  66
1720780449,380:    572  74  66
1720780449,380:     30  74  66
1720780449,380:   -697  74  66
1720780449,380:   -611  74  66
1720780449,380:    181  74  66
1720780449,411:    615  74  66
1720780449,411:     75  74  66
1720780449,411:   -763  74  66
1720780449,411:   -829  74  66
1720780449,411:    -83  74  66
1720780449,411:    459  74  66
1720780449,411:     87  74  66
1720780449,411:   -653  74  66
1720780449,411:   -706  74  66
1720780449,411:     38  74  66
1720780449,411:    597  74  66
1720780449,411:    197  74  66
1720780449,411:   -673  74  66
1720780449,411:   -895  74  66
1720780449,411:   -219  74  66
1720780449,443:    429  74  66
1720780449,443:    190  74  66
1720780449,443:   -579  74  66
1720780449,443:   -781  74  66
1720780449,443:    -76  74  66
1720780449,443:    659  74  66
1720780449,443:    481  74  66
1720780449,443:   -390  74  66
1720780449,443:   -868  74  66
1720780449,443:   -493  74  66
1720780449,443:    -27  74  66
1720780449,443:   -423  74  66
1720780449,443:  -1522  74  66
1720780449,443:  -2216  74  66
1720780449,443:  -1903  74  66
1720780449,443:  -1222  74  66
1720780449,443:  -1136  74  66
1720780449,443:  -1575  74  66
1720780449,443:  -1439  74  66
1720780449,443:    -29  74  66
1720780449,443:   2042  74  66
1720780449,443:   3645  74  66
1720780449,475:   4556  74  66
1720780449,475:   5664  74  66
1720780449,475:   7663  74  66
1720780449,475:  10015  74  66
1720780449,475:  11566  74  66
1720780449,475:  11961  74  66
1720780449,475:  12029  74  66
1720780449,475:  12556  74  66
1720780449,506:  13158  78  70
1720780449,506:  12741  78  70
1720780449,506:  10931  78  70
1720780449,506:   8610  78  70
1720780449,506:   6832  78  70
1720780449,506:   5575  78  70
1720780449,506:   4004  78  70
1720780449,506:   1776  78  70
1720780449,506:   -321  78  70
1720780449,506:  -1335  78  70
1720780449,506:  -1384  78  70
1720780449,506:  -1462  78  70
1720780449,506:  -2118  78  70
1720780449,506:  -2763  78  70
1720780449,506:  -2565  78  70
1720780449,506:  -1737  78  70
1720780449,506:  -1381  78  70
1720780449,506:  -2107  78  70
1720780449,506:  -3200  78  70
1720780449,506:  -3511  78  70
1720780449,506:  -2933  78  70
1720780449,506:  -2476  78  70
1720780449,536:  -2902  78  70
1720780449,536:  -3707  78  70
1720780449,536:  -3801  78  70
1720780449,536:  -3004  78  70
1720780449,536:  -2286  78  70
1720780449,536:  -2499  78  70
1720780449,536:  -3251  78  70
1720780449,536:  -3447  78  70
1720780449,536:  -2785  78  70
1720780449,536:  -2143  78  70
1720780449,536:  -2384  78  70
1720780449,536:  -3176  78  70
1720780449,536:  -3401  78  70
1720780449,536:  -2667  78  70
1720780449,536:  -1831  78  70
1720780449,568:  -1878  78  70
1720780449,568:  -2632  78  70
1720780449,568:  -2991  78  70
1720780449,568:  -2420  78  70
1720780449,568:  -1638  78  70
1720780449,568:  -1636  78  70
1720780449,568:  -2336  78  70
1720780449,568:  -2683  78  70
1720780449,568:  -2085  78  70
1720780449,568:  -1221  78  70
1720780449,568:  -1149  78  70
1720780449,568:  -1906  78  70
1720780449,568:  -2436  78  70
1720780449,600:  -2009  78  70
1720780449,600:  -1174  78  70
1720780449,600:  -1008  78  70
1720780449,600:  -1669  78  70
1720780449,600:  -2181  78  70
1720780449,600:  -1762  78  70
1720780449,600:   -894  78  70
1720780449,600:   -681  78  70
1720780449,600:  -1390  78  70
1720780449,600:  -2058  78  70
1720780449,600:  -1783  78  70
1720780449,600:   -912  78  70
1720780449,600:   -560  78  70
1720780449,600:  -1130  78  70
1720780449,600:  -1770  78  70
1720780449,600:  -1537  78  70
1720780449,600:   -681  78  70
1720780449,600:   -301  78  70
1720780449,600:   -898  78  70
1720780449,600:  -1671  78  70
1720780449,600:  -1586  78  70
1720780449,600:   -754  78  70
1720780449,631:   -257  78  70
1720780449,631:   -713  78  70
1720780449,631:  -1444  78  70
1720780449,631:  -1396  78  70
1720780449,631:   -581  78  70
1720780449,631:    -51  78  70
1720780449,631:   -513  78  70
1720780449,631:  -1356  78  70
1720780449,631:  -1457  78  70
1720780449,631:   -678  78  70
1720780449,631:    -32  78  70
1720780449,631:   -330  78  70
1720780449,631:  -1104  78  70
1720780449,631:  -1243  78  70
1720780449,631:   -510  78  70
1720780449,661:    145  78  70
1720780449,661:   -151  78  70
1720780449,661:  -1012  78  70
1720780449,661:  -1290  78  70
1720780449,661:   -620  78  70
1720780449,661:    115  78  70
1720780449,661:    -32  78  70
1720780449,661:   -808  78  70
1720780449,661:  -1103  78  70
1720780449,661:   -471  78  70
1720780449,661:    275  78  70
1720780449,661:    141  78  70
1720780449,661:   -707  78  70
1720780449,661:  -1144  78  70
1720780449,661:   -597  78  70
1720780449,693:    210  78  70
1720780449,693:    229  78  70
1720780449,693:   -514  78  70
1720780449,693:   -955  78  70
1720780449,693:   -451  78  70
1720780449,693:    351  78  70
1720780449,693:    380  78  70
1720780449,693:   -429  78  70
1720780449,724:  -1011  78  70
1720780449,724:   -604  78  70
1720780449,724:    247  78  70
1720780449,724:    431  78  70
1720780449,724:   -255  78  70
1720780449,724:   -826  78  70
1720780449,724:   -454  78  70
1720780449,724:    404  78  70
1720780449,724:    625  78  70
1720780449,724:    -93  78  70
1720780449,724:   -789  78  70
1720780449,724:   -527  78  70
1720780449,724:    364  78  70
1720780449,724:    744  78  70
1720780449,724:    178  78  70
1720780449,724:   -483  78  70
1720780449,724:   -260  78  70
1720780449,724:    612  78  70
1720780449,724:   1011  78  70
1720780449,724:    411  78  70
1720780449,724:   -384  78  70
1720780449,724:   -310  78  70
1720780449,754:    534  78  70
1720780449,754:   1040  78  70
1720780449,754:    565  78  70
1720780449,754:   -207  78  70
1720780449,754:   -191  78  70
1720780449,754:    615  78  70
1720780449,754:   1136  78  70
1720780449,754:    642  78  70
1720780449,754:   -257  78  70
1720780449,754:   -409  78  70
1720780449,754:    343  78  70
1720780449,754:    977  78  70
1720780449,754:    657  78  70
1720780449,754:   -156  78  70
1720780449,754:   -330  78  70
1720780449,786:    382  78  70
1720780449,786:   1019  78  70
1720780449,786:    686  78  70
1720780449,786:   -234  78  70
1720780449,786:   -563  78  70
1720780449,786:     86  78  70
1720780449,786:    816  78  70
1720780449,786:    645  78  70
1720780449,786:   -185  78  70
1720780449,786:   -527  78  70
1720780449,786:    101  78  70
1720780449,786:    869  78  70
1720780449,786:    730  78  70
1720780449,786:   -176  78  70
1720780449,786:   -683  78  70
1720780449,818:   -161  78  70
1720780449,818:    664  78  70
1720780449,818:    695  78  70
1720780449,818:    -81  78  70
1720780449,818:   -572  78  70
1720780449,818:    -81  78  70
1720780449,818:    747  78  70
1720780449,818:    792  78  70
1720780449,818:    -47  78  70
1720780449,818:   -683  78  70
1720780449,818:   -303  78  70
1720780449,818:    558  78  70
1720780449,818:    743  78  70
1720780449,818:     18  78  70
1720780449,818:   -611  78  70
1720780449,818:   -266  78  70
1720780449,818:    608  78  70
1720780449,818:    841  78  70
1720780449,818:     90  78  70
1720780449,818:   -673  78  70
1720780449,818:   -462  78  70
1720780449,818:    417  78  70
1720780449,818:    795  78  70
1720780449,850:    191  78  70
1720780449,850:   -543  78  70
1720780449,850:   -380  78  70
1720780449,850:    480  78  70
1720780449,850:    892  78  70
1720780449,850:    277  78  70
1720780449,850:   -573  78  70
1720780449,850:   -550  78  70
1720780449,850:    295  78  70
1720780449,850:    845  78  70
1720780449,850:    402  78  70
1720780449,850:   -378  78  70
1720780449,850:   -378  78  70
1720780449,850:    453  78  70
1720780449,850:   1035  78  70
1720780449,881:    586  78  70
1720780449,881:   -312  78  70
1720780449,881:   -475  78  70
1720780449,881:    299  78  70
1720780449,881:    984  78  70
1720780449,881:    692  78  70
1720780449,881:   -142  78  70
1720780449,881:   -343  78  70
1720780449,881:    391  78  70
1720780449,881:   1095  78  70
1720780449,881:    812  78  70
1720780449,881:   -115  78  70
1720780449,881:   -477  78  70
1720780449,881:    177  78  70
1720780449,881:    959  78  70
1720780449,912:    834  78  70
1720780449,912:     -5  78  70
1720780449,912:   -398  78  70
1720780449,912:    194  78  70
1720780449,912:    970  78  70
1720780449,912:    858  78  70
1720780449,912:    -45  78  70
1720780449,912:   -573  78  70
1720780449,912:    -58  78  70
1720780449,912:    797  78  70
1720780449,912:    866  78  70
1720780449,912:     91  78  70
1720780449,912:   -435  78  70
1720780449,912:     32  78  70
1720780449,912:    887  78  70
1720780449,942:    981  78  70
1720780449,942:    150  78  70
1720780449,942:   -535  78  70
1720780449,942:   -206  78  70
1720780449,942:    659  78  70
1720780449,942:    894  78  70
1720780449,942:    195  78  70
1720780449,974:   -469  78  70
1720780449,974:   -179  78  70
1720780449,974:    683  78  70
1720780449,974:    949  78  70
1720780449,974:    218  78  70
1720780449,974:   -574  78  70
1720780449,974:   -397  78  70
1720780449,974:    498  78  70
1720780449,974:    930  78  70
1720780449,974:    352  78  70
1720780449,974:   -421  78  70
1720780449,974:   -312  78  70
1720780449,974:    547  78  70
1720780449,974:   1004  78  70
1720780449,974:    411  78  70
1720780449,974:   -481  78  70
1720780449,974:   -520  78  70
1720780449,974:    311  78  70
1720780449,974:    893  78  70
1720780449,974:    462  78  70
1720780449,974:   -374  78  70
1720780449,974:   -454  78  70
1720780449,974:    345  78  70
1720780450,006:    955  78  70
1720780450,006:    526  78  70
1720780450,006:   -417  78  70
1720780450,006:   -663  78  70
1720780450,006:     64  78  70
1720780450,006:    764  78  70
1720780450,006:    498  78  70
1720780450,006:   -360  78  70
1720780450,006:   -626  78  70
1720780450,006:     68  78  70
1720780450,006:    792  78  70
1720780450,006:    553  78  70
1720780450,006:   -368  78  70
1720780450,006:   -769  78  70
1720780450,006:   -146  78  70
1720780450,038:    654  78  70
1720780450,038:    572  78  70
1720780450,038:   -250  78  70
1720780450,038:   -664  78  70
1720780450,038:    -89  78  70
1720780450,038:    706  78  70
1720780450,038:    632  78  70
1720780450,038:   -260  78  70
1720780450,038:   -815  78  70
1720780450,038:   -326  78  70
1720780450,038:    532  78  70
1720780450,038:    622  78  70
1720780450,038:   -148  78  70
1720780450,038:   -696  78  70
1720780450,038:   -247  78  70
1720780450,038:    614  78  70
1720780450,038:    729  78  70
1720780450,038:    -97  78  70
1720780450,038:   -794  78  70
1720780450,038:   -465  78  70
1720780450,038:    430  78  70
1720780450,038:    705  78  70
1720780450,070:     24  78  70
1720780450,070:   -652  78  70
1720780450,070:   -372  78  70
1720780450,070:    508  78  70
1720780450,070:    809  78  70
1720780450,070:     90  78  70
1720780450,070:   -727  78  70
1720780450,070:   -594  78  70
1720780450,070:    275  78  70
1720780450,070:    712  78  70
1720780450,070:    149  78  70
1720780450,070:   -620  78  70
1720780450,070:   -521  78  70
1720780450,070:    327  78  70
1720780450,070:    783  78  70
1720780450,102:    196  78  70
1720780450,102:   -694  78  70
1720780450,102:   -728  78  70
1720780450,102:    115  78  70
1720780450,102:    715  78  70
1720780450,102:    299  78  70
1720780450,102:   -532  78  70
1720780450,102:   -613  78  70
1720780450,102:    186  78  70
1720780450,102:    798  78  70
1720780450,102:    372  78  70
1720780450,102:   -564  78  70
1720780450,102:   -790  78  70
1720780450,102:    -29  78  70
1720780450,102:    709  78  70
1720780450,134:    474  78  70
1720780450,134:   -363  78  70
1720780450,134:   -611  78  70
1720780450,134:    103  78  70
1720780450,134:    840  78  70
1720780450,134:    594  78  70
1720780450,134:   -351  78  70
1720780450,134:   -774  78  70
1720780450,134:   -158  78  70
1720780450,134:    650  78  70
1720780450,134:    576  78  70
1720780450,134:   -250  78  70
1720780450,134:   -670  78  70
1720780450,134:    -90  78  70
1720780450,134:    719  78  70
1720780450,166:    647  78  70
1720780450,166:   -271  78  70
1720780450,166:   -860  78  70
1720780450,166:   -380  78  70
1720780450,166:    504  78  70
1720780450,166:    621  78  70
1720780450,166:   -156  78  70
1720780450,166:   -740  78  70
1720780450,166:   -318  78  70
1720780450,166:    553  78  70
1720780450,166:    695  78  70
1720780450,166:   -127  78  70
1720780450,166:   -854  78  70
1720780450,166:   -557  78  70
1720780450,166:    331  78  70
1720780450,198:    620  78  70
1720780450,198:    -50  78  70
1720780450,198:   -722  78  70
1720780450,198:   -426  78  70
1720780450,198:    492  78  70
1720780450,198:    847  78  70
1720780450,198:    176  78  70
1720780450,198:   -625  78  70
1720780450,198:   -527  78  70
1720780450,198:    229  78  70
1720780450,198:    462  78  70
1720780450,198:   -386  78  70
1720780450,198:  -1480  78  70
1720780450,198:  -1700  78  70
1720780450,198:  -1113  78  70
1720780450,230:   -812  78  70
1720780450,230:  -1396  78  70
1720780450,230:  -2069  78  70
1720780450,230:  -1631  78  70
1720780450,230:    -36  78  70
1720780450,230:   1604  78  70
1720780450,230:   2486  78  70
1720780450,230:   3146  78  70
1720780450,230:   4652  78  70
1720780450,230:   7049  78  70
1720780450,230:   9212  78  70
1720780450,230:  10238  78  70
1720780450,230:  10565  78  70
1720780450,230:  11293  78  70
1720780450,230:  12603  78  70
1720780450,263:  13435  79  74
1720780450,263:  12823  79  74
1720780450,263:  11127  79  74
1720780450,263:   9534  79  74
1720780450,263:   8487  79  74
1720780450,263:   7224  79  74
1720780450,263:   4985  79  74
1720780450,263:   2255  79  74
1720780450,263:    338  79  74
1720780450,263:   -258  79  74
1720780450,263:   -415  79  74
1720780450,263:  -1192  79  74
1720780450,263:  -2409  79  74
1720780450,263:  -2895  79  74
1720780450,263:  -2144  79  74
1720780450,263:  -1108  79  74
1720780450,263:  -1076  79  74
1720780450,263:  -2089  79  74
1720780450,263:  -2913  79  74
1720780450,263:  -2685  79  74
1720780450,263:  -1987  79  74
1720780450,263:  -1994  79  74
1720780450,263:  -2876  79  74
1720780450,293:  -3558  79  74
1720780450,293:  -3188  79  74
1720780450,293:  -2287  79  74
1720780450,293:  -2042  79  74
1720780450,293:  -2738  79  74
1720780450,293:  -3357  79  74
1720780450,293:  -2973  79  74
1720780450,293:  -2013  79  74
1720780450,293:  -1686  79  74
1720780450,293:  -2387  79  74
1720780450,293:  -3145  79  74
1720780450,293:  -2920  79  74
1720780450,293:  -1985  79  74
1720780450,293:  -1528  79  74
1720780450,293:  -2080  79  74
1720780450,325:  -2791  79  74
1720780450,325:  -2606  79  74
1720780450,325:  -1692  79  74
1720780450,325:  -1199  79  74
1720780450,325:  -1721  79  74
1720780450,325:  -2480  79  74
1720780450,325:  -2365  79  74
1720780450,325:  -1445  79  74
1720780450,325:   -863  79  74
1720780450,325:  -1330  79  74
1720780450,325:  -2163  79  74
1720780450,325:  -2195  79  74
1720780450,325:  -1349  79  74
1720780450,325:   -707  79  74
1720780450,325:  -1066  79  74
1720780450,357:  -1863  79  74
1720780450,357:  -1936  79  74
1720780450,357:  -1111  79  74
1720780450,357:   -431  79  74
1720780450,357:   -774  79  74
1720780450,357:  -1666  79  74
1720780450,357:  -1894  79  74
1720780450,389:  -1139  79  74
1720780450,389:   -372  79  74
1720780450,389:   -560  79  74
1720780450,389:  -1376  79  74
1720780450,389:  -1636  79  74
1720780450,389:   -921  79  74
1720780450,389:   -132  79  74
1720780450,389:   -300  79  74
1720780450,389:  -1200  79  74
1720780450,389:  -1626  79  74
1720780450,389:  -1012  79  74
1720780450,389:   -161  79  74
1720780450,389:   -167  79  74
1720780450,389:   -961  79  74
1720780450,389:  -1401  79  74
1720780450,389:   -834  79  74
1720780450,389:     21  79  74
1720780450,389:     37  79  74
1720780450,389:   -821  79  74
1720780450,389:  -1411  79  74
1720780450,389:   -947  79  74
1720780450,389:    -33  79  74
1720780450,389:    156  79  74
1720780450,421:   -568  79  74
1720780450,421:  -1156  79  74
1720780450,421:   -754  79  74
1720780450,421:    135  79  74
1720780450,421:    336  79  74
1720780450,421:   -441  79  74
1720780450,421:  -1170  79  74
1720780450,421:   -890  79  74
1720780450,421:     29  79  74
1720780450,421:    392  79  74
1720780450,421:   -227  79  74
1720780450,421:   -918  79  74
1720780450,421:   -675  79  74
1720780450,421:    228  79  74
1720780450,421:    614  79  74
1720780450,453:    -39  79  74
1720780450,453:   -862  79  74
1720780450,453:   -758  79  74
1720780450,453:    136  79  74
1720780450,453:    654  79  74
1720780450,453:    155  79  74
1720780450,453:   -620  79  74
1720780450,453:   -554  79  74
1720780450,453:    314  79  74
1720780450,453:    854  79  74
1720780450,453:    336  79  74
1720780450,453:   -563  79  74
1720780450,453:   -655  79  74
1720780450,453:    169  79  74
1720780450,453:    823  79  74
1720780450,453:    474  79  74
1720780450,453:   -344  79  74
1720780450,453:   -457  79  74
1720780450,453:    336  79  74
1720780450,453:   1000  79  74
1720780450,453:    639  79  74
1720780450,453:   -293  79  74
1720780450,485:   -567  79  74
1720780450,485:    167  79  74
1720780450,485:    943  79  74
1720780450,485:    766  79  74
1720780450,485:    -64  79  74
1720780450,485:   -356  79  74
1720780450,485:    336  79  74
1720780450,485:   1125  79  74
1720780450,485:    965  79  74
1720780450,485:     52  79  74
1720780450,485:   -409  79  74
1720780450,485:    170  79  74
1720780450,485:    999  79  74
1720780450,485:    981  79  74
1720780450,485:    166  79  74
1720780450,520:   -311  79  74
1720780450,520:    214  79  74
1720780450,520:   1036  79  74
1720780450,520:   1024  79  74
1720780450,520:    129  79  74
1720780450,520:   -513  79  74
1720780450,520:   -105  79  74
1720780450,520:    759  79  74
1720780450,520:    907  79  74
1720780450,520:    140  79  74
1720780450,520:   -497  79  74
1720780450,520:   -144  79  74
1720780450,520:    709  79  74
1720780450,520:    882  79  74
1720780450,520:     76  79  74
1720780450,549:   -691  79  74
1720780450,549:   -448  79  74
1720780450,549:    441  79  74
1720780450,549:    782  79  74
1720780450,549:    137  79  74
1720780450,549:   -590  79  74
1720780450,549:   -385  79  74
1720780450,549:    490  79  74
1720780450,549:    854  79  74
1720780450,549:    172  79  74
1720780450,549:   -692  79  74
1720780450,549:   -622  79  74
1720780450,549:    262  79  74
1720780450,549:    786  79  74
1720780450,549:    279  79  74
1720780450,549:   -533  79  74
1720780450,549:   -510  79  74
1720780450,549:    340  79  74
1720780450,549:    884  79  74
1720780450,549:    364  79  74
1720780450,582:   -567  79  74
1720780450,582:   -702  79  74
1720780450,582:    102  79  74
1720780450,582:    760  79  74
1720780450,582:    407  79  74
1720780450,582:   -449  79  74
1720780450,582:   -612  79  74
1720780450,582:    162  79  74
1720780450,582:    844  79  74
1720780450,582:    501  79  74
1720780450,582:   -446  79  74
1720780450,582:   -755  79  74
1720780450,582:    -35  79  74
1720780450,582:    758  79  74
1720780450,582:    598  79  74
1720780450,613:   -251  79  74
1720780450,613:   -587  79  74
1720780450,613:     76  79  74
1720780450,613:    862  79  74
1720780450,613:    697  79  74
1720780450,613:   -247  79  74
1720780450,613:   -748  79  74
1720780450,613:   -173  79  74
1720780450,613:    701  79  74
1720780450,613:    727  79  74
1720780450,613:    -91  79  74
1720780450,613:   -603  79  74
1720780450,613:    -87  79  74
1720780450,613:    784  79  74
1720780450,613:    843  79  74
1720780450,644:    -23  79  74
1720780450,644:   -685  79  74
1720780450,644:   -293  79  74
1720780450,644:    608  79  74
1720780450,644:    825  79  74
1720780450,644:     97  79  74
1720780450,644:   -554  79  74
1720780450,676:   -223  79  74
1720780450,676:    650  79  74
1720780450,676:    881  79  74
1720780450,676:    112  79  74
1720780450,676:   -670  79  74
1720780450,676:   -457  79  74
1720780450,676:    443  79  74
1720780450,676:    838  79  74
1720780450,676:    235  79  74
1720780450,676:   -503  79  74
1720780450,676:   -336  79  74
1720780450,676:    529  79  74
1720780450,676:    931  79  74
1720780450,676:    293  79  74
1720780450,676:   -567  79  74
1720780450,676:   -527  79  74
1720780450,676:    338  79  74
1720780450,676:    881  79  74
1720780450,676:    407  79  74
1720780450,676:   -397  79  74
1720780450,676:   -400  79  74
1720780450,676:    424  79  74
1720780450,676:    970  79  74
1720780450,708:    470  79  74
1720780450,708:   -455  79  74
1720780450,708:   -606  79  74
1720780450,708:    190  79  74
1720780450,708:    875  79  74
1720780450,708:    571  79  74
1720780450,708:   -258  79  74
1720780450,708:   -440  79  74
1720780450,708:    295  79  74
1720780450,708:    965  79  74
1720780450,708:    645  79  74
1720780450,708:   -280  79  74
1720780450,708:   -606  79  74
1720780450,708:     73  79  74
1720780450,708:    848  79  74
1720780450,740:    709  79  74
1720780450,740:   -114  79  74
1720780450,740:   -466  79  74
1720780450,740:    151  79  74
1720780450,740:    913  79  74
1720780450,740:    776  79  74
1720780450,740:   -125  79  74
1720780450,740:   -628  79  74
1720780450,740:    -98  79  74
1720780450,740:    746  79  74
1720780450,740:    804  79  74
1720780450,740:     48  79  74
1720780450,740:   -445  79  74
1720780450,740:     26  79  74
1720780450,740:    840  79  74
1720780450,772:    892  79  74
1720780450,772:     67  79  74
1720780450,772:   -570  79  74
1720780450,772:   -201  79  74
1720780450,772:    663  79  74
1720780450,772:    883  79  74
1720780450,772:    195  79  74
1720780450,772:   -435  79  74
1720780450,772:   -133  79  74
1720780450,772:    701  79  74
1720780450,772:    939  79  74
1720780450,772:    225  79  74
1720780450,772:   -517  79  74
1720780450,772:   -319  79  74
1720780450,772:    541  79  74
1720780450,772:    930  79  74
1720780450,772:    366  79  74
1720780450,772:   -343  79  74
1720780450,772:   -197  79  74
1720780450,772:    624  79  74
1720780450,772:   1014  79  74
1720780450,772:    416  79  74
1720780450,804:   -405  79  74
1720780450,804:   -370  79  74
1720780450,804:    463  79  74
1720780450,804:   1002  79  74
1720780450,804:    565  79  74
1720780450,804:   -213  79  74
1720780450,804:   -243  79  74
1720780450,805:    526  79  74
1720780450,805:   1053  79  74
1720780450,805:    595  79  74
1720780450,805:   -278  79  74
1720780450,805:   -427  79  74
1720780450,805:    328  79  74
1720780450,805:    990  79  74
1720780450,805:    711  79  74
1720780450,836:    -86  79  74
1720780450,836:   -282  79  74
1720780450,836:    404  79  74
1720780450,836:   1046  79  74
1720780450,836:    750  79  74
1720780450,836:   -141  79  74
1720780450,836:   -477  79  74
1720780450,836:    155  79  74
1720780450,836:    906  79  74
1720780450,836:    800  79  74
1720780450,836:     23  79  74
1720780450,836:   -328  79  74
1720780450,836:    242  79  74
1720780450,836:    968  79  74
1720780450,836:    846  79  74
1720780450,869:    -22  79  74
1720780450,869:   -529  79  74
1720780450,869:    -45  79  74
1720780450,869:    760  79  74
1720780450,869:    822  79  74
1720780450,869:     86  79  74
1720780450,869:   -425  79  74
1720780450,869:     -8  79  74
1720780450,869:    770  79  74
1720780450,869:    848  79  74
1720780450,869:     79  79  74
1720780450,869:   -541  79  74
1720780450,869:   -218  79  74
1720780450,869:    589  79  74
1720780450,869:    805  79  74
1720780450,900:    166  79  74
1720780450,900:   -426  79  74
1720780450,900:   -142  79  74
1720780450,900:    646  79  74
1720780450,900:    876  79  74
1720780450,900:    213  79  74
1720780450,900:   -466  79  74
1720780450,900:   -252  79  74
1720780450,900:    585  79  74
1720780450,900:    967  79  74
1720780450,900:    430  79  74
1720780450,900:   -264  79  74
1720780450,900:   -167  79  74
1720780450,900:    565  79  74
1720780450,900:    907  79  74
1720780450,934:    336  79  74
1720780450,934:   -437  79  74
1720780450,934:   -413  79  74
1720780450,934:    358  79  74
1720780450,934:    864  79  74
1720780450,934:    470  79  74
1720780450,934:   -242  79  74
1720780450,934:   -272  79  74
1720780450,934:    425  79  74
1720780450,934:    892  79  74
1720780450,934:    446  79  74
1720780450,934:   -386  79  74
1720780450,934:   -552  79  74
1720780450,934:    117  79  74
1720780450,934:    712  79  74
1720780450,964:    456  79  74
1720780450,964:   -268  79  74
1720780450,964:   -455  79  74
1720780450,964:    138  79  74
1720780450,964:    679  79  74
1720780450,964:    386  79  74
