timestamp: ADC HeartRate4sAverage HeartRate30sAverage
1720777629,947:   -108  75  74
1720777629,947:   -259  75  74
1720777629,947:   -459  75  74
1720777629,947:   -441  75  74
1720777629,947:   -230  75  74
1720777629,947:   -104  75  74
1720777629,947:   -224  75  74
1720777629,947:   -425  75  74
1720777629,947:   -434  75  74
1720777629,947:   -246  75  74
1720777629,947:   -124  75  74
1720777629,947:   -246  75  74
1720777629,947:   -465  75  74
1720777629,947:   -489  75  74
1720777629,947:   -279  75  74
1720777629,978:    -98  75  74
1720777629,978:   -165  75  74
1720777629,978:   -374  75  74
1720777629,978:   -430  75  74
1720777629,978:   -251  75  74
1720777629,978:    -73  75  74
1720777629,978:   -133  75  74
1720777629,978:   -359  75  74
1720777629,978:   -455  75  74
1720777629,978:   -303  75  74
1720777629,978:   -110  75  74
1720777629,978:   -133  75  74
1720777629,978:   -333  75  74
1720777629,978:   -430  75  74
1720777629,978:   -284  75  74
1720777630,009:    -87  75  74
1720777630,009:   -101  75  74
1720777630,009:   -310  75  74
1720777630,009:   -429  75  74
1720777630,009:   -288  75  74
1720777630,009:    -63  75  74
1720777630,009:    -37  75  74
1720777630,009:   -228  75  74
1720777630,009:   -364  75  74
1720777630,009:   -248  75  74
1720777630,009:    -30  75  74
1720777630,009:      2  75  74
1720777630,009:   -196  75  74
1720777630,009:   -359  75  74
1720777630,009:   -266  75  74
1720777630,040:    -41  75  74
1720777630,040:     22  75  74
1720777630,040:   -155  75  74
1720777630,040:   -328  75  74
1720777630,040:   -258  75  74
1720777630,040:    -38  75  74
1720777630,040:     39  75  74
1720777630,040:   -133  75  74
1720777630,040:   -326  75  74
1720777630,040:   -282  75  74
1720777630,040:    -57  75  74
1720777630,040:     57  75  74
1720777630,040:    -78  75  74
1720777630,040:   -269  75  74
1720777630,040:   -252  75  74
1720777630,072:    -56  75  74
1720777630,072:     44  75  74
1720777630,072:   -102  75  74
1720777630,072:   -314  75  74
1720777630,072:   -316  75  74
1720777630,072:   -112  75  74
1720777630,072:     25  75  74
1720777630,072:    -83  75  74
1720777630,072:   -280  75  74
1720777630,072:   -288  75  74
1720777630,072:    -85  75  74
1720777630,072:     64  75  74
1720777630,072:    -37  75  74
1720777630,072:   -255  75  74
1720777630,072:   -299  75  74
1720777630,104:   -114  75  74
1720777630,104:     53  75  74
1720777630,104:    -18  75  74
1720777630,104:   -230  75  74
1720777630,104:   -295  75  74
1720777630,104:   -123  75  74
1720777630,104:     65  75  74
1720777630,104:     38  75  74
1720777630,104:   -143  75  74
1720777630,104:   -205  75  74
1720777630,104:    -38  75  74
1720777630,104:    159  75  74
1720777630,104:    144  75  74
1720777630,104:    -52  75  74
1720777630,104:   -172  75  74
1720777630,136:    -81  75  74
1720777630,136:     53  75  74
1720777630,136:     -3  75  74
1720777630,136:   -227  75  74
1720777630,136:   -359  75  74
1720777630,136:   -247  75  74
1720777630,136:    -55  75  74
1720777630,136:    -40  75  74
1720777630,136:   -212  75  74
1720777630,136:   -325  75  74
1720777630,136:   -211  75  74
1720777630,136:    -18  75  74
1720777630,136:    -11  75  74
1720777630,136:   -215  75  74
1720777630,136:   -367  75  74
1720777630,136:   -264  75  74
1720777630,136:    -42  75  74
1720777630,136:      7  75  74
1720777630,136:   -180  75  74
1720777630,136:   -351  75  74
1720777630,136:   -269  75  74
1720777630,136:    -36  75  74
1720777630,168:     47  75  74
1720777630,168:   -121  75  74
1720777630,168:   -300  75  74
1720777630,168:   -224  75  74
1720777630,168:     36  75  74
1720777630,168:    172  75  74
1720777630,168:     48  75  74
1720777630,168:   -122  75  74
1720777630,168:    -73  75  74
1720777630,168:    126  75  74
1720777630,168:    138  75  74
1720777630,168:   -215  75  74
1720777630,200:   -716  75  74
1720777630,200:  -1028  75  74
1720777630,200:  -1117  75  74
1720777630,200:  -1252  75  74
1720777630,200:  -1590  75  74
1720777630,200:  -1902  75  74
1720777630,200:  -1805  75  74
1720777630,200:  -1204  75  74
1720777630,200:   -352  75  74
1720777630,200:    531  75  74
1720777630,200:   1560  75  74
1720777630,200:   3016  75  74
1720777630,200:   4895  75  74
1720777630,200:   6811  75  74
1720777630,200:   8396  75  74
1720777630,200:   9669  75  74
1720777630,200:  10907  75  74
1720777630,200:  12169  75  74
1720777630,200:  13106  75  74
1720777630,200:  13335  75  74
1720777630,200:  12865  75  74
1720777630,200:  12040  75  74
1720777630,200:  11050  75  74
1720777630,232:   9691  81  76
1720777630,232:   7713  81  76
1720777630,232:   5306  81  76
1720777630,232:   3066  81  76
1720777630,232:   1428  81  76
1720777630,232:    262  81  76
1720777630,232:   -835  81  76
1720777630,264:  -1965  81  76
1720777630,264:  -2774  81  76
1720777630,264:  -2927  81  76
1720777630,264:  -2571  81  76
1720777630,264:  -2200  81  76
1720777630,264:  -2134  81  76
1720777630,264:  -2269  81  76
1720777630,264:  -2369  81  76
1720777630,264:  -2432  81  76
1720777630,264:  -2644  81  76
1720777630,264:  -3039  81  76
1720777630,264:  -3379  81  76
1720777630,264:  -3444  81  76
1720777630,264:  -3319  81  76
1720777630,264:  -3271  81  76
1720777630,296:  -3376  81  76
1720777630,296:  -3415  81  76
1720777630,296:  -3178  81  76
1720777630,296:  -2780  81  76
1720777630,296:  -2548  81  76
1720777630,296:  -2632  81  76
1720777630,296:  -2836  81  76
1720777630,296:  -2877  81  76
1720777630,296:  -2732  81  76
1720777630,296:  -2621  81  76
1720777630,296:  -2676  81  76
1720777630,296:  -2760  81  76
1720777630,296:  -2653  81  76
1720777630,296:  -2380  81  76
1720777630,296:  -2192  81  76
1720777630,296:  -2253  81  76
1720777630,296:  -2427  81  76
1720777630,296:  -2454  81  76
1720777630,296:  -2279  81  76
1720777630,296:  -2103  81  76
1720777630,296:  -2086  81  76
1720777630,296:  -2140  81  76
1720777630,296:  -2053  81  76
1720777630,328:  -1805  81  76
1720777630,328:  -1612  81  76
1720777630,328:  -1641  81  76
1720777630,328:  -1787  81  76
1720777630,328:  -1790  81  76
1720777630,328:  -1579  81  76
1720777630,328:  -1356  81  76
1720777630,328:  -1329  81  76
1720777630,328:  -1442  81  76
1720777630,328:  -1455  81  76
1720777630,328:  -1277  81  76
1720777630,328:  -1086  81  76
1720777630,328:  -1090  81  76
1720777630,328:  -1244  81  76
1720777630,328:  -1300  81  76
1720777630,360:  -1141  81  76
1720777630,360:   -934  81  76
1720777630,360:   -913  81  76
1720777630,360:  -1063  81  76
1720777630,360:  -1142  81  76
1720777630,360:  -1001  81  76
1720777630,360:   -788  81  76
1720777630,360:   -746  81  76
1720777630,360:   -894  81  76
1720777630,360:   -997  81  76
1720777630,360:   -878  81  76
1720777630,360:   -665  81  76
1720777630,360:   -609  81  76
1720777630,360:   -759  81  76
1720777630,360:   -890  81  76
1720777630,392:   -810  81  76
1720777630,392:   -621  81  76
1720777630,392:   -572  81  76
1720777630,392:   -730  81  76
1720777630,392:   -878  81  76
1720777630,392:   -804  81  76
1720777630,392:   -589  81  76
1720777630,392:   -492  81  76
1720777630,392:   -612  81  76
1720777630,392:   -758  81  76
1720777630,392:   -706  81  76
1720777630,392:   -503  81  76
1720777630,392:   -391  81  76
1720777630,392:   -486  81  76
1720777630,392:   -625  81  76
1720777630,392:   -584  81  76
1720777630,392:   -389  81  76
1720777630,392:   -269  81  76
1720777630,392:   -354  81  76
1720777630,392:   -501  81  76
1720777630,392:   -492  81  76
1720777630,392:   -325  81  76
1720777630,424:   -217  81  76
1720777630,424:   -305  81  76
1720777630,424:   -460  81  76
1720777630,424:   -453  81  76
1720777630,424:   -266  81  76
1720777630,424:   -115  81  76
1720777630,424:   -165  81  76
1720777630,424:   -315  81  76
1720777630,424:   -329  81  76
1720777630,424:   -158  81  76
1720777630,424:     -1  81  76
1720777630,424:    -35  81  76
1720777630,424:   -182  81  76
1720777630,424:   -207  81  76
1720777630,424:    -43  81  76
1720777630,456:    117  81  76
1720777630,456:     74  81  76
1720777630,456:   -112  81  76
1720777630,456:   -196  81  76
1720777630,456:    -74  81  76
1720777630,456:     86  81  76
1720777630,456:     73  81  76
1720777630,456:    -90  81  76
1720777630,456:   -176  81  76
1720777630,456:    -62  81  76
1720777630,456:    114  81  76
1720777630,456:    142  81  76
1720777630,456:     16  81  76
1720777630,456:    -70  81  76
1720777630,456:     12  81  76
1720777630,488:    151  81  76
1720777630,488:    156  81  76
1720777630,488:     14  81  76
1720777630,488:    -92  81  76
1720777630,488:    -27  81  76
1720777630,488:    117  81  76
1720777630,488:    147  81  76
1720777630,488:     16  81  76
1720777630,520:   -122  81  76
1720777630,520:   -119  81  76
1720777630,520:    -23  81  76
1720777630,520:     10  81  76
1720777630,520:    -71  81  76
1720777630,520:   -145  81  76
1720777630,520:    -91  81  76
1720777630,520:     37  81  76
1720777630,520:     80  81  76
1720777630,520:    -12  81  76
1720777630,520:   -112  81  76
1720777630,520:    -83  81  76
1720777630,520:     27  81  76
1720777630,520:     52  81  76
1720777630,520:    -75  81  76
1720777630,520:   -223  81  76
1720777630,520:   -218  81  76
1720777630,520:    -72  81  76
1720777630,520:     41  81  76
1720777630,520:      7  81  76
1720777630,520:    -92  81  76
1720777630,520:    -98  81  76
1720777630,552:      5  81  76
1720777630,552:     78  81  76
1720777630,552:     18  81  76
1720777630,552:    -97  81  76
1720777630,552:   -121  81  76
1720777630,552:    -36  81  76
1720777630,552:     19  81  76
1720777630,552:    -52  81  76
1720777630,552:   -174  81  76
1720777630,552:   -193  81  76
1720777630,552:    -87  81  76
1720777630,552:      1  81  76
1720777630,552:    -41  81  76
1720777630,552:   -144  81  76
1720777630,552:   -147  81  76
1720777630,584:    -17  81  76
1720777630,584:    100  81  76
1720777630,584:     73  81  76
1720777630,584:    -47  81  76
1720777630,584:    -93  81  76
1720777630,584:      1  81  76
1720777630,584:    110  81  76
1720777630,584:     93  81  76
1720777630,584:    -24  81  76
1720777630,584:    -81  81  76
1720777630,584:      4  81  76
1720777630,584:    125  81  76
1720777630,584:    132  81  76
1720777630,584:     25  81  76
1720777630,584:    -49  81  76
1720777630,616:      9  81  76
1720777630,616:    116  81  76
1720777630,616:    129  81  76
1720777630,616:     29  81  76
1720777630,616:    -52  81  76
1720777630,616:     -8  81  76
1720777630,616:    101  81  76
1720777630,616:    134  81  76
1720777630,616:     55  81  76
1720777630,616:    -23  81  76
1720777630,616:      7  81  76
1720777630,616:    101  81  76
1720777630,616:    136  81  76
1720777630,616:     72  81  76
1720777630,616:     12  81  76
1720777630,616:     57  81  76
1720777630,616:    166  81  76
1720777630,616:    210  81  76
1720777630,616:    144  81  76
1720777630,616:     66  81  76
1720777630,616:     87  81  76
1720777630,616:    180  81  76
1720777630,616:    217  81  76
1720777630,648:    143  81  76
1720777630,648:     51  81  76
1720777630,648:     62  81  76
1720777630,648:    159  81  76
1720777630,648:    210  81  76
1720777630,648:    147  81  76
1720777630,648:     51  81  76
1720777630,648:     54  81  76
1720777630,648:    151  81  76
1720777630,648:    211  81  76
1720777630,648:    150  81  76
1720777630,648:     46  81  76
1720777630,648:     45  81  76
1720777630,648:    163  81  76
1720777630,648:    261  81  76
1720777630,679:    224  81  76
1720777630,679:    106  81  76
1720777630,679:     59  81  76
1720777630,679:    128  81  76
1720777630,679:    200  81  76
1720777630,679:    157  81  76
1720777630,679:     36  81  76
1720777630,679:    -21  81  76
1720777630,679:     41  81  76
1720777630,679:    125  81  76
1720777630,679:    118  81  76
1720777630,679:     41  81  76
1720777630,679:     19  81  76
1720777630,679:    102  81  76
1720777630,679:    194  81  76
1720777630,711:    185  81  76
1720777630,711:     96  81  76
1720777630,711:     57  81  76
1720777630,711:    125  81  76
1720777630,711:    214  81  76
1720777630,711:    206  81  76
1720777630,711:    112  81  76
1720777630,711:     54  81  76
1720777630,711:    107  81  76
1720777630,711:    196  81  76
1720777630,711:    205  81  76
1720777630,711:    132  81  76
1720777630,711:     93  81  76
1720777630,711:    168  81  76
1720777630,711:    283  81  76
1720777630,743:    303  81  76
1720777630,743:    205  81  76
1720777630,743:    108  81  76
1720777630,743:    125  81  76
1720777630,743:    214  81  76
1720777630,743:    240  81  76
1720777630,743:    153  81  76
1720777630,743:     57  81  76
1720777630,743:     75  81  76
1720777630,743:    185  81  76
1720777630,743:    254  81  76
1720777630,743:    212  81  76
1720777630,743:    138  81  76
1720777630,743:    152  81  76
1720777630,743:    242  81  76
1720777630,775:    286  81  76
1720777630,775:    213  81  76
1720777630,775:    110  81  76
1720777630,775:    107  81  76
1720777630,775:    199  81  76
1720777630,775:    258  81  76
1720777630,775:    199  81  76
1720777630,775:    102  81  76
1720777630,775:    106  81  76
1720777630,775:    218  81  76
1720777630,775:    293  81  76
1720777630,775:    228  81  76
1720777630,775:     95  81  76
1720777630,775:     56  81  76
1720777630,775:    151  81  76
1720777630,807:    247  81  76
1720777630,807:    217  81  76
1720777630,807:    110  81  76
1720777630,807:     89  81  76
1720777630,807:    208  81  76
1720777630,807:    334  81  76
1720777630,807:    318  81  76
1720777630,807:    189  81  76
1720777630,807:    120  81  76
1720777630,807:    201  81  76
1720777630,807:    315  81  76
1720777630,807:    303  81  76
1720777630,807:    174  81  76
1720777630,807:    106  81  76
1720777630,807:    203  81  76
1720777630,839:    346  81  76
1720777630,839:    346  81  76
1720777630,839:    190  81  76
1720777630,839:     71  81  76
1720777630,839:    133  81  76
1720777630,839:    282  81  76
1720777630,839:    317  81  76
1720777630,839:    203  81  76
1720777630,839:    123  81  76
1720777630,839:    227  81  76
1720777630,839:    408  81  76
1720777630,839:    438  81  76
1720777630,839:    266  81  76
1720777630,839:    103  81  76
1720777630,839:    144  81  76
1720777630,839:    309  81  76
1720777630,839:    359  81  76
1720777630,839:    217  81  76
1720777630,839:     90  81  76
1720777630,839:    189  81  76
1720777630,839:    431  81  76
1720777630,839:    535  81  76
1720777630,871:    384  81  76
1720777630,871:    187  81  76
1720777630,871:    209  81  76
1720777630,871:    412  81  76
1720777630,871:    512  81  76
1720777630,871:    359  81  76
1720777630,871:    152  81  76
1720777630,871:    182  81  76
1720777630,871:    435  81  76
1720777630,871:    595  81  76
1720777630,871:    449  81  76
1720777630,871:    171  81  76
1720777630,871:    102  81  76
1720777630,871:    298  81  76
1720777630,871:    466  81  76
1720777630,903:    356  81  76
1720777630,903:    103  81  76
1720777630,903:     45  81  76
1720777630,903:    266  81  76
1720777630,903:    469  81  76
1720777630,903:    374  81  76
1720777630,903:     90  81  76
1720777630,903:    -13  81  76
1720777630,903:    190  81  76
1720777630,903:    414  81  76
1720777630,903:    352  81  76
1720777630,903:     89  81  76
1720777630,903:      8  81  76
1720777630,903:    262  81  76
1720777630,903:    558  81  76
1720777630,934:    535  81  76
1720777630,934:    245  81  76
1720777630,934:    106  81  76
1720777630,934:    340  81  76
1720777630,934:    667  81  76
1720777630,934:    650  81  76
1720777630,934:    247  81  76
1720777630,934:   -150  81  76
1720777630,934:   -256  81  76
1720777630,934:   -281  81  76
1720777630,934:   -609  81  76
1720777630,934:  -1232  81  76
1720777630,934:  -1653  81  76
1720777630,934:  -1465  81  76
1720777630,934:   -811  81  76
1720777630,965:   -122  81  76
1720777630,965:    503  81  76
1720777630,965:   1468  81  76
1720777630,965:   3125  81  76
1720777630,965:   5224  81  76
1720777630,965:   7136  81  76
1720777630,965:   8559  81  76
1720777630,965:   9820  81  76
1720777630,965:  11353  81  76
1720777630,965:  13037  81  76
1720777630,965:  14267  81  76
1720777630,965:  14666  81  76
1720777630,965:  14495  81  76
1720777630,965:  14227  81  76
1720777630,965:  13820  81  76
1720777630,997:  12718  80  77
1720777630,997:  10579  80  77
1720777630,997:   7836  80  77
1720777630,997:   5329  80  77
1720777630,997:   3437  80  77
1720777630,997:   1829  80  77
1720777630,997:     82  80  77
1720777630,997:  -1657  80  77
1720777630,997:  -2807  80  77
1720777630,997:  -3104  80  77
1720777630,997:  -2917  80  77
1720777630,997:  -2775  80  77
1720777630,997:  -2769  80  77
1720777630,997:  -2616  80  77
1720777630,997:  -2268  80  77
1720777631,029:  -2096  80  77
1720777631,029:  -2410  80  77
1720777631,029:  -2975  80  77
1720777631,029:  -3247  80  77
1720777631,029:  -3079  80  77
1720777631,029:  -2912  80  77
1720777631,029:  -3163  80  77
1720777631,029:  -3638  80  77
1720777631,029:  -3736  80  77
1720777631,029:  -3259  80  77
1720777631,029:  -2689  80  77
1720777631,029:  -2583  80  77
1720777631,029:  -2877  80  77
1720777631,029:  -3017  80  77
1720777631,029:  -2728  80  77
1720777631,029:  -2387  80  77
1720777631,029:  -2475  80  77
1720777631,029:  -2893  80  77
1720777631,029:  -3039  80  77
1720777631,029:  -2604  80  77
1720777631,029:  -2003  80  77
1720777631,029:  -1848  80  77
1720777631,029:  -2172  80  77
1720777631,061:  -2408  80  77
1720777631,061:  -2153  80  77
1720777631,061:  -1711  80  77
1720777631,061:  -1652  80  77
1720777631,061:  -2036  80  77
1720777631,061:  -2300  80  77
1720777631,061:  -2010  80  77
1720777631,061:  -1455  80  77
1720777631,061:  -1268  80  77
1720777631,061:  -1599  80  77
1720777631,061:  -1914  80  77
1720777631,061:  -1708  80  77
1720777631,061:  -1192  80  77
1720777631,061:   -997  80  77
1720777631,061:  -1336  80  77
1720777631,093:  -1706  80  77
1720777631,093:  -1554  80  77
1720777631,093:  -1028  80  77
1720777631,093:   -768  80  77
1720777631,093:  -1053  80  77
1720777631,093:  -1433  80  77
1720777631,093:  -1326  80  77
1720777631,093:   -821  80  77
1720777631,093:   -551  80  77
1720777631,093:   -851  80  77
1720777631,093:  -1300  80  77
1720777631,093:  -1269  80  77
1720777631,093:   -774  80  77
1720777631,093:   -446  80  77
1720777631,093:   -683  80  77
1720777631,125:  -1126  80  77
1720777631,125:  -1131  80  77
1720777631,125:   -653  80  77
1720777631,125:   -307  80  77
1720777631,125:   -545  80  77
1720777631,125:  -1048  80  77
1720777631,125:  -1136  80  77
1720777631,125:   -680  80  77
1720777631,125:   -268  80  77
1720777631,125:   -420  80  77
1720777631,125:   -904  80  77
1720777631,125:  -1041  80  77
1720777631,125:   -629  80  77
1720777631,125:   -208  80  77
1720777631,125:   -327  80  77
1720777631,157:   -822  80  77
1720777631,157:  -1015  80  77
1720777631,157:   -634  80  77
1720777631,157:   -169  80  77
1720777631,157:   -207  80  77
1720777631,157:   -658  80  77
1720777631,157:   -877  80  77
1720777631,157:   -540  80  77
1720777631,157:    -90  80  77
1720777631,157:   -130  80  77
1720777631,157:   -619  80  77
1720777631,157:   -904  80  77
1720777631,157:   -596  80  77
1720777631,157:    -91  80  77
1720777631,157:    -30  80  77
1720777631,157:   -456  80  77
1720777631,157:   -753  80  77
1720777631,157:   -478  80  77
1720777631,157:     32  80  77
1720777631,157:    122  80  77
1720777631,189:   -315  80  77
1720777631,189:   -679  80  77
1720777631,189:   -462  80  77
1720777631,189:     68  80  77
1720777631,189:    236  80  77
1720777631,189:   -145  80  77
1720777631,189:   -526  80  77
1720777631,221:   -357  80  77
1720777631,221:    160  80  77
1720777631,221:    351  80  77
1720777631,221:    -31  80  77
1720777631,221:   -467  80  77
1720777631,221:   -352  80  77
1720777631,221:    182  80  77
1720777631,221:    458  80  77
1720777631,221:    149  80  77
1720777631,221:   -285  80  77
1720777631,221:   -212  80  77
1720777631,221:    306  80  77
1720777631,221:    607  80  77
1720777631,221:    307  80  77
1720777631,221:   -177  80  77
1720777631,221:   -173  80  77
1720777631,221:    335  80  77
1720777631,221:    696  80  77
1720777631,221:    462  80  77
1720777631,221:    -18  80  77
1720777631,221:    -63  80  77
1720777631,221:    409  80  77
1720777631,221:    772  80  77
1720777631,253:    534  80  77
1720777631,253:     -4  80  77
1720777631,253:   -131  80  77
1720777631,253:    312  80  77
1720777631,253:    725  80  77
1720777631,253:    556  80  77
1720777631,253:     33  80  77
1720777631,253:   -138  80  77
1720777631,253:    266  80  77
1720777631,253:    680  80  77
1720777631,253:    517  80  77
1720777631,253:    -54  80  77
1720777631,253:   -304  80  77
1720777631,253:     72  80  77
1720777631,253:    554  80  77
1720777631,285:    496  80  77
1720777631,285:    -19  80  77
1720777631,285:   -287  80  77
1720777631,285:     62  80  77
1720777631,285:    555  80  77
1720777631,285:    520  80  77
1720777631,285:    -31  80  77
1720777631,285:   -389  80  77
1720777631,285:   -103  80  77
1720777631,285:    420  80  77
1720777631,285:    472  80  77
1720777631,285:    -18  80  77
1720777631,285:   -385  80  77
1720777631,285:   -123  80  77
1720777631,285:    417  80  77
1720777631,317:    512  80  77
1720777631,317:     17  80  77
1720777631,317:   -419  80  77
1720777631,317:   -221  80  77
1720777631,317:    338  80  77
1720777631,317:    514  80  77
1720777631,317:     81  80  77
1720777631,317:   -366  80  77
1720777631,317:   -208  80  77
1720777631,317:    345  80  77
1720777631,317:    548  80  77
1720777631,317:    105  80  77
1720777631,317:   -417  80  77
1720777631,317:   -332  80  77
1720777631,317:    237  80  77
1720777631,349:    537  80  77
1720777631,349:    186  80  77
1720777631,349:   -320  80  77
1720777631,349:   -263  80  77
1720777631,349:    304  80  77
1720777631,349:    632  80  77
1720777631,349:    267  80  77
1720777631,349:   -336  80  77
1720777631,349:   -398  80  77
1720777631,349:    132  80  77
1720777631,349:    527  80  77
1720777631,349:    246  80  77
1720777631,349:   -341  80  77
1720777631,349:   -443  80  77
1720777631,349:     72  80  77
1720777631,349:    498  80  77
1720777631,349:    233  80  77
1720777631,349:   -417  80  77
1720777631,349:   -618  80  77
1720777631,349:   -131  80  77
1720777631,349:    376  80  77
1720777631,349:    224  80  77
1720777631,381:   -377  80  77
1720777631,381:   -602  80  77
1720777631,381:   -132  80  77
1720777631,381:    409  80  77
1720777631,381:    291  80  77
1720777631,381:   -353  80  77
1720777631,381:   -680  80  77
1720777631,381:   -271  80  77
1720777631,381:    311  80  77
1720777631,381:    284  80  77
1720777631,381:   -313  80  77
1720777631,381:   -664  80  77
1720777631,381:   -281  80  77
1720777631,381:    325  80  77
1720777631,381:    332  80  77
1720777631,413:   -300  80  77
1720777631,413:   -754  80  77
1720777631,413:   -446  80  77
1720777631,413:    191  80  77
1720777631,413:    303  80  77
1720777631,413:   -252  80  77
1720777631,413:   -708  80  77
1720777631,413:   -427  80  77
1720777631,413:    221  80  77
1720777631,413:    362  80  77
1720777631,413:   -225  80  77
1720777631,413:   -787  80  77
1720777631,413:   -593  80  77
1720777631,413:     80  80  77
1720777631,413:    333  80  77
1720777631,445:   -162  80  77
1720777631,445:   -719  80  77
1720777631,445:   -558  80  77
1720777631,445:    120  80  77
1720777631,445:    411  80  77
1720777631,445:    -99  80  77
1720777631,445:   -765  80  77
1720777631,445:   -724  80  77
1720777631,445:    -65  80  77
1720777631,445:    311  80  77
1720777631,445:   -107  80  77
1720777631,445:   -756  80  77
1720777631,445:   -743  80  77
1720777631,445:    -74  80  77
1720777631,445:    355  80  77
1720777631,445:    -52  80  77
1720777631,445:   -788  80  77
1720777631,445:   -891  80  77
1720777631,445:   -245  80  77
1720777631,445:    277  80  77
1720777631,445:    -13  80  77
1720777631,445:   -706  80  77
1720777631,445:   -833  80  77
1720777631,477:   -190  80  77
1720777631,477:    370  80  77
1720777631,477:     78  80  77
1720777631,477:   -729  80  77
1720777631,477:  -1022  80  77
1720777631,477:   -461  80  77
1720777631,477:    165  80  77
1720777631,508:      1  80  77
1720777631,508:   -740  80  77
1720777631,508:  -1048  80  77
1720777631,508:   -489  80  77
1720777631,508:    198  80  77
1720777631,508:     94  80  77
1720777631,508:   -690  80  77
1720777631,508:  -1122  80  77
1720777631,508:   -637  80  77
1720777631,508:    112  80  77
1720777631,508:    140  80  77
1720777631,508:   -568  80  77
1720777631,508:  -1027  80  77
1720777631,508:   -586  80  77
1720777631,508:    172  80  77
1720777631,540:    219  80  77
1720777631,540:   -562  80  77
1720777631,540:  -1181  80  77
1720777631,540:   -858  80  77
1720777631,540:    -69  80  77
1720777631,540:    109  80  77
1720777631,540:   -572  80  77
1720777631,540:  -1193  80  77
1720777631,540:   -897  80  77
1720777631,540:    -69  80  77
1720777631,540:    187  80  77
1720777631,540:   -497  80  77
1720777631,540:  -1235  80  77
1720777631,540:  -1066  80  77
1720777631,540:   -244  80  77
1720777631,571:    123  80  77
1720777631,571:   -446  80  77
1720777631,571:  -1160  80  77
1720777631,571:  -1017  80  77
1720777631,571:   -193  80  77
1720777631,571:    192  80  77
1720777631,571:   -433  80  77
1720777631,571:  -1302  80  77
1720777631,571:  -1301  80  77
1720777631,571:   -480  80  77
1720777631,571:     34  80  77
1720777631,571:   -461  80  77
1720777631,571:  -1297  80  77
1720777631,571:  -1309  80  77
1720777631,571:   -434  80  77
1720777631,571:    190  80  77
1720777631,571:   -269  80  77
1720777631,571:  -1231  80  77
1720777631,571:  -1434  80  77
1720777631,571:   -637  80  77
1720777631,571:     77  80  77
1720777631,571:   -244  80  77
1720777631,571:  -1154  80  77
1720777631,603:  -1390  80  77
1720777631,603:   -593  80  77
1720777631,603:    191  80  77
1720777631,603:    -92  80  77
1720777631,603:  -1107  80  77
1720777631,603:  -1530  80  77
1720777631,603:   -833  80  77
1720777631,603:     23  80  77
1720777631,603:   -116  80  77
1720777631,603:  -1065  80  77
1720777631,603:  -1529  80  77
1720777631,603:   -865  80  77
1720777631,603:     37  80  77
1720777631,603:    -47  80  77
1720777631,603:  -1052  80  77
1720777631,635:  -1663  80  77
1720777631,635:  -1084  80  77
1720777631,635:    -99  80  77
1720777631,635:     -5  80  77
1720777631,635:   -882  80  77
1720777631,635:  -1476  80  77
1720777631,635:   -899  80  77
1720777631,635:    132  80  77
1720777631,635:    252  80  77
1720777631,635:   -752  80  77
1720777631,635:  -1602  80  77
1720777631,635:  -1224  80  77
1720777631,635:   -179  80  77
1720777631,635:    121  80  77
1720777631,635:   -711  80  77
1720777631,635:  -1508  80  77
1720777631,635:  -1119  80  77
1720777631,635:     -9  80  77
1720777631,635:    365  80  77
1720777631,635:   -526  80  77
1720777631,635:  -1549  80  77
1720777631,635:  -1398  80  77
1720777631,667:   -355  80  77
1720777631,667:    119  80  77
1720777631,667:   -656  80  77
1720777631,667:  -1658  80  77
1720777631,667:  -1520  80  77
1720777631,667:   -416  80  77
1720777631,667:    171  80  77
1720777631,667:   -585  80  77
1720777631,667:  -1733  80  77
1720777631,667:  -1767  80  77
1720777631,667:   -671  80  77
1720777631,667:     89  80  77
1720777631,667:   -479  80  77
1720777631,667:  -1560  80  77
1720777631,667:  -1599  80  77
1720777631,699:   -432  80  77
1720777631,699:    463  80  77
1720777631,699:   -107  80  77
1720777631,699:  -1500  80  77
1720777631,699:  -2060  80  77
1720777631,699:  -1358  80  77
1720777631,699:   -726  80  77
1720777631,699:  -1426  80  77
1720777631,731:  -2920  80  77
1720777631,731:  -3486  80  77
1720777631,731:  -2480  80  77
1720777631,731:  -1141  80  77
1720777631,731:   -869  80  77
1720777631,731:  -1332  80  77
1720777631,731:   -808  80  77
1720777631,731:   1492  80  77
1720777631,731:   4339  80  77
1720777631,731:   6047  80  77
1720777631,731:   6594  80  77
1720777631,731:   7559  80  77
1720777631,731:   9885  80  77
1720777631,731:  12488  80  77
1720777631,731:  13621  80  77
1720777631,763:  13084  78  78
1720777631,763:  12460  78  78
1720777631,763:  12898  78  78
1720777631,763:  13493  78  78
1720777631,763:  12445  78  78
1720777631,763:   9433  78  78
1720777631,763:   6152  78  78
1720777631,763:   4234  78  78
1720777631,763:   3280  78  78
1720777631,763:   1669  78  78
1720777631,763:  -1125  78  78
1720777631,763:  -3678  78  78
1720777631,763:  -4449  78  78
1720777631,763:  -3788  78  78
1720777631,763:  -3376  78  78
1720777631,763:  -3997  78  78
1720777631,763:  -4606  78  78
1720777631,763:  -3959  78  78
1720777631,763:  -2582  78  78
1720777631,763:  -2194  78  78
1720777631,763:  -3436  78  78
1720777631,763:  -4904  78  78
1720777631,795:  -4906  78  78
1720777631,795:  -3707  78  78
1720777631,795:  -3121  78  78
1720777631,795:  -4074  78  78
1720777631,795:  -5333  78  78
1720777631,795:  -5117  78  78
1720777631,795:  -3553  78  78
1720777631,795:  -2529  78  78
1720777631,795:  -3230  78  78
1720777631,795:  -4592  78  78
1720777631,795:  -4707  78  78
1720777631,795:  -3425  78  78
1720777631,795:  -2499  78  78
1720777631,795:  -3193  78  78
1720777631,795:  -4540  78  78
1720777631,828:  -4580  78  78
1720777631,828:  -3044  78  78
1720777631,828:  -1757  78  78
1720777631,828:  -2249  78  78
1720777631,828:  -3750  78  78
1720777631,828:  -4166  78  78
1720777631,828:  -2910  78  78
1720777631,828:  -1641  78  78
1720777631,828:  -2010  78  78
1720777631,828:  -3440  78  78
1720777631,828:  -3863  78  78
1720777631,828:  -2547  78  78
1720777631,828:  -1123  78  78
1720777631,828:  -1412  78  78
1720777631,828:  -3024  78  78
1720777631,859:  -3797  78  78
1720777631,859:  -2703  78  78
1720777631,859:  -1197  78  78
1720777631,859:  -1228  78  78
1720777631,859:  -2650  78  78
1720777631,859:  -3391  78  78
1720777631,859:  -2273  78  78
1720777631,859:   -648  78  78
1720777631,859:   -584  78  78
1720777631,859:  -2141  78  78
1720777631,859:  -3220  78  78
1720777631,859:  -2365  78  78
1720777631,859:   -703  78  78
1720777631,859:   -388  78  78
1720777631,859:  -1747  78  78
1720777631,859:  -2835  78  78
1720777631,859:  -2063  78  78
1720777631,859:   -384  78  78
1720777631,859:      9  78  78
1720777631,859:  -1416  78  78
1720777631,859:  -2771  78  78
1720777631,859:  -2253  78  78
1720777631,859:   -574  78  78
1720777631,891:     42  78  78
1720777631,891:  -1192  78  78
1720777631,891:  -2566  78  78
1720777631,891:  -2165  78  78
1720777631,891:   -491  78  78
1720777631,891:    243  78  78
1720777631,891:   -953  78  78
1720777631,891:  -2494  78  78
1720777631,891:  -2313  78  78
1720777631,891:   -656  78  78
1720777631,891:    291  78  78
1720777631,891:   -683  78  78
1720777631,891:  -2203  78  78
1720777631,891:  -2139  78  78
1720777631,891:   -530  78  78
1720777631,923:    491  78  78
1720777631,923:   -465  78  78
1720777631,923:  -2169  78  78
1720777631,923:  -2352  78  78
1720777631,923:   -775  78  78
1720777631,923:    496  78  78
1720777631,923:   -157  78  78
1720777631,955:  -1772  78  78
1720777631,955:  -2084  78  78
1720777631,955:   -621  78  78
1720777631,955:    676  78  78
1720777631,955:     69  78  78
1720777631,955:  -1657  78  78
1720777631,955:  -2174  78  78
1720777631,955:   -770  78  78
1720777631,955:    720  78  78
1720777631,955:    374  78  78
1720777631,955:  -1271  78  78
1720777631,955:  -1918  78  78
1720777631,955:   -634  78  78
1720777631,955:    873  78  78
1720777631,955:    561  78  78
1720777631,955:  -1240  78  78
1720777631,955:  -2178  78  78
1720777631,955:  -1032  78  78
1720777631,955:    674  78  78
1720777631,955:    735  78  78
1720777631,955:   -830  78  78
1720777631,955:  -1801  78  78
1720777631,955:   -767  78  78
1720777631,986:    938  78  78
1720777631,986:   1061  78  78
1720777631,986:   -597  78  78
1720777631,986:  -1838  78  78
1720777631,986:  -1016  78  78
1720777631,986:    769  78  78
1720777631,986:   1187  78  78
1720777631,986:   -233  78  78
1720777631,986:  -1474  78  78
1720777631,986:   -749  78  78
1720777631,986:   1040  78  78
1720777631,986:   1555  78  78
1720777631,986:    116  78  78
1720777631,986:  -1346  78  78
1720777631,986:   -863  78  78
1720777632,018:    907  78  78
1720777632,018:   1606  78  78
1720777632,018:    316  78  78
1720777632,018:  -1211  78  78
1720777632,018:   -886  78  78
1720777632,018:    860  78  78
1720777632,018:   1691  78  78
1720777632,018:    466  78  78
1720777632,018:  -1215  78  78
1720777632,018:  -1105  78  78
1720777632,018:    650  78  78
1720777632,018:   1753  78  78
1720777632,018:    804  78  78
1720777632,018:   -865  78  78
1720777632,018:   -967  78  78
1720777632,050:    621  78  78
1720777632,050:   1736  78  78
1720777632,050:    832  78  78
1720777632,050:   -949  78  78
1720777632,050:  -1241  78  78
1720777632,050:    338  78  78
1720777632,050:   1720  78  78
1720777632,050:   1145  78  78
1720777632,050:   -532  78  78
1720777632,050:   -982  78  78
1720777632,050:    419  78  78
1720777632,050:   1772  78  78
1720777632,050:   1223  78  78
1720777632,050:   -570  78  78
1720777632,050:  -1244  78  78
1720777632,082:     73  78  78
1720777632,082:   1629  78  78
1720777632,082:   1407  78  78
1720777632,082:   -220  78  78
1720777632,082:   -989  78  78
1720777632,082:    174  78  78
1720777632,082:   1704  78  78
1720777632,082:   1535  78  78
1720777632,082:   -162  78  78
1720777632,082:  -1129  78  78
1720777632,082:    -70  78  78
1720777632,082:   1615  78  78
1720777632,082:   1728  78  78
1720777632,082:    168  78  78
1720777632,082:   -925  78  78
1720777632,082:    -51  78  78
1720777632,082:   1610  78  78
1720777632,082:   1824  78  78
1720777632,082:    248  78  78
1720777632,082:  -1049  78  78
1720777632,082:   -356  78  78
1720777632,082:   1390  78  78
1720777632,114:   1903  78  78
1720777632,114:    568  78  78
1720777632,114:   -750  78  78
1720777632,114:   -213  78  78
1720777632,114:   1474  78  78
1720777632,114:   2068  78  78
1720777632,114:    762  78  78
1720777632,114:   -694  78  78
1720777632,114:   -325  78  78
1720777632,114:   1378  78  78
1720777632,114:   2152  78  78
1720777632,114:    965  78  78
1720777632,114:   -602  78  78
1720777632,114:   -447  78  78
1720777632,114:   1176  78  78
1720777632,146:   2036  78  78
1720777632,146:    892  78  78
1720777632,146:   -814  78  78
1720777632,146:   -827  78  78
1720777632,146:    866  78  78
1720777632,146:   2054  78  78
1720777632,146:   1224  78  78
1720777632,146:   -440  78  78
1720777632,146:   -626  78  78
1720777632,146:    957  78  78
1720777632,146:   2208  78  78
1720777632,146:   1444  78  78
1720777632,146:   -364  78  78
1720777632,146:   -816  78  78
1720777632,146:    663  78  78
1720777632,177:   2101  78  78
1720777632,177:   1619  78  78
1720777632,177:    -84  78  78
1720777632,177:   -650  78  78
1720777632,177:    723  78  78
1720777632,177:   2203  78  78
1720777632,177:   1798  78  78
1720777632,177:     -5  78  78
1720777632,177:   -815  78  78
1720777632,177:    432  78  78
1720777632,177:   2065  78  78
1720777632,177:   1944  78  78
1720777632,209:    285  78  78
1720777632,209:   -616  78  78
1720777632,209:    506  78  78
1720777632,209:   2162  78  78
1720777632,209:   2143  78  78
1720777632,209:    444  78  78
1720777632,209:   -664  78  78
1720777632,209:    306  78  78
1720777632,209:   2068  78  78
1720777632,209:   2314  78  78
1720777632,209:    769  78  78
1720777632,209:   -450  78  78
1720777632,209:    310  78  78
1720777632,209:   1971  78  78
1720777632,209:   2232  78  78
1720777632,241:    618  78  78
1720777632,241:   -807  78  78
1720777632,241:   -192  78  78
1720777632,241:   1624  78  78
1720777632,241:   2280  78  78
1720777632,241:   1020  78  78
1720777632,241:   -319  78  78
1720777632,241:    210  78  78
1720777632,241:   1978  78  78
1720777632,241:   2668  78  78
1720777632,241:   1349  78  78
1720777632,241:   -240  78  78
1720777632,241:      8  78  78
1720777632,241:   1716  78  78
1720777632,241:   2575  78  78
1720777632,241:   1422  78  78
1720777632,241:   -217  78  78
1720777632,241:   -155  78  78
1720777632,241:   1465  78  78
1720777632,241:   2409  78  78
1720777632,241:   1348  78  78
1720777632,241:   -339  78  78
1720777632,241:   -355  78  78
1720777632,273:   1388  78  78
1720777632,273:   2668  78  78
1720777632,273:   1895  78  78
1720777632,273:    192  78  78
1720777632,273:    -95  78  78
1720777632,273:   1406  78  78
1720777632,273:   2623  78  78
1720777632,305:   1824  78  78
1720777632,305:    -73  78  78
1720777632,305:   -652  78  78
1720777632,305:    755  78  78
1720777632,305:   2226  78  78
1720777632,305:   1836  78  78
1720777632,305:    179  78  78
1720777632,305:   -442  78  78
1720777632,305:    837  78  78
1720777632,305:   2288  78  78
1720777632,305:   1945  78  78
1720777632,305:    220  78  78
1720777632,305:   -581  78  78
1720777632,305:    617  78  78
1720777632,305:   2235  78  78
1720777632,337:   2170  78  78
1720777632,337:    563  78  78
1720777632,337:   -392  78  78
1720777632,337:    577  78  78
1720777632,337:   2107  78  78
1720777632,337:   2087  78  78
1720777632,337:    465  78  78
1720777632,337:   -619  78  78
1720777632,337:    285  78  78
1720777632,337:   1993  78  78
1720777632,337:   2304  78  78
1720777632,337:    895  78  78
1720777632,337:   -271  78  78
1720777632,337:    396  78  78
1720777632,337:   1939  78  78
1720777632,337:   2205  78  78
1720777632,337:    714  78  78
1720777632,337:   -633  78  78
1720777632,337:    -88  78  78
1720777632,337:   1598  78  78
1720777632,337:   2214  78  78
1720777632,337:   1006  78  78
1720777632,337:   -340  78  78
1720777632,369:     35  78  78
1720777632,369:   1623  78  78
1720777632,369:   2286  78  78
1720777632,369:   1098  78  78
1720777632,369:   -390  78  78
1720777632,369:   -198  78  78
1720777632,369:   1404  78  78
1720777632,369:   2304  78  78
1720777632,369:   1346  78  78
1720777632,369:   -157  78  78
1720777632,369:   -179  78  78
1720777632,369:   1252  78  78
1720777632,369:   2152  78  78
1720777632,369:   1245  78  78
1720777632,369:   -315  78  78
1720777632,401:   -438  78  78
1720777632,401:   1056  78  78
1720777632,401:   2230  78  78
1720777632,401:   1603  78  78
1720777632,401:     88  78  78
1720777632,401:   -223  78  78
1720777632,401:   1087  78  78
1720777632,401:   2239  78  78
1720777632,401:   1663  78  78
1720777632,401:     88  78  78
1720777632,401:   -387  78  78
1720777632,401:    854  78  78
1720777632,401:   2145  78  78
1720777632,401:   1783  78  78
1720777632,401:    270  78  78
1720777632,401:   -356  78  78
1720777632,401:    710  78  78
1720777632,401:   1967  78  78
1720777632,401:   1671  78  78
1720777632,401:    158  78  78
1720777632,401:   -537  78  78
1720777632,401:    559  78  78
1720777632,433:   2048  78  78
1720777632,433:   2034  78  78
1720777632,433:    601  78  78
1720777632,433:   -302  78  78
1720777632,433:    510  78  78
1720777632,433:   1861  78  78
1720777632,433:   1850  78  78
1720777632,433:    377  78  78
1720777632,433:   -652  78  78
1720777632,433:    114  78  78
1720777632,433:   1657  78  78
1720777632,433:   1976  78  78
1720777632,433:    722  78  78
1720777632,433:   -340  78  78
1720777632,433:    292  78  78
1720777632,465:   1800  78  78
1720777632,465:   2182  78  78
1720777632,465:    899  78  78
1720777632,465:   -353  78  78
1720777632,465:    102  78  78
1720777632,465:   1660  78  78
1720777632,465:   2270  78  78
1720777632,465:   1133  78  78
1720777632,465:   -252  78  78
1720777632,465:    -91  78  78
1720777632,465:   1264  78  78
1720777632,465:   1855  78  78
1720777632,465:    741  78  78
1720777632,465:   -713  78  78
1720777632,465:   -626  78  78
1720777632,496:    851  78  78
1720777632,496:   1776  78  78
1720777632,496:    995  78  78
1720777632,496:   -344  78  78
1720777632,496:   -343  78  78
1720777632,496:   1040  78  78
1720777632,496:   1956  78  78
1720777632,496:   1142  78  78
1720777632,496:   -381  78  78
1720777632,496:   -614  78  78
1720777632,496:    714  78  78
1720777632,496:   1830  78  78
1720777632,496:   1286  78  78
1720777632,496:   -127  78  78
1720777632,496:   -424  78  78
1720777632,527:    871  78  78
1720777632,527:   2085  78  78
1720777632,527:   1623  78  78
1720777632,527:     47  78  78
1720777632,527:   -648  78  78
1720777632,527:    239  78  78
1720777632,527:   1197  78  78
1720777632,527:    549  78  78
1720777632,527:  -1282  78  78
1720777632,527:  -2245  78  78
1720777632,527:  -1350  78  78
1720777632,527:     85  78  78
1720777632,527:    301  78  78
1720777632,527:   -522  78  78
1720777632,527:   -390  78  78
1720777632,558:   1843  78  78
1720777632,558:   4919  78  78
1720777632,558:   6811  78  78
1720777632,558:   7276  78  78
1720777632,558:   8075  78  78
1720777632,558:  10480  78  78
1720777632,558:  13436  78  78
1720777632,558:  14909  78  78
1720777632,558:  14469  78  78
1720777632,558:  13822  78  78
1720777632,558:  14425  78  78
1720777632,558:  15425  78  78
1720777632,558:  14744  78  78
1720777632,558:  11791  78  78
1720777632,558:   8321  78  78
1720777632,590:   6265  74  78
1720777632,590:   5359  74  78
1720777632,590:   3813  74  78
1720777632,590:    889  74  78
1720777632,590:  -1945  74  78
1720777632,590:  -2888  74  78
1720777632,590:  -2183  74  78
1720777632,590:  -1703  74  78
1720777632,590:  -2452  74  78
1720777632,590:  -3321  74  78
1720777632,590:  -2763  74  78
1720777632,590:  -1173  74  78
1720777632,590:   -507  74  78
1720777632,590:  -1741  74  78
1720777632,590:  -3491  74  78
1720777632,622:  -3737  74  78
1720777632,622:  -2483  74  78
1720777632,622:  -1677  74  78
1720777632,622:  -2596  74  78
1720777632,622:  -4127  74  78
1720777632,622:  -4218  74  78
1720777632,622:  -2675  74  78
1720777632,622:  -1409  74  78
1720777632,622:  -1912  74  78
1720777632,622:  -3317  74  78
1720777632,622:  -3552  74  78
1720777632,622:  -2195  74  78
1720777632,622:  -1013  74  78
1720777632,622:  -1577  74  78
1720777632,622:  -3133  74  78
1720777632,622:  -3552  74  78
1720777632,622:  -2197  74  78
1720777632,622:   -780  74  78
1720777632,622:  -1083  74  78
1720777632,622:  -2630  74  78
1720777632,622:  -3284  74  78
1720777632,622:  -2135  74  78
1720777632,622:   -684  74  78
1720777632,654:   -789  74  78
1720777632,654:  -2189  74  78
1720777632,654:  -2836  74  78
1720777632,654:  -1683  74  78
1720777632,654:   -136  74  78
1720777632,654:   -166  74  78
1720777632,654:  -1719  74  78
1720777632,654:  -2722  74  78
1720777632,654:  -1859  74  78
1720777632,654:   -298  74  78
1720777632,654:    -85  74  78
1720777632,654:  -1429  74  78
1720777632,654:  -2427  74  78
1720777632,654:  -1640  74  78
1720777632,654:    -58  74  78
1720777632,686:    270  74  78
1720777632,686:  -1053  74  78
1720777632,686:  -2197  74  78
1720777632,686:  -1573  74  78
1720777632,686:     34  74  78
1720777632,686:    553  74  78
1720777632,686:   -620  74  78
1720777632,686:  -1821  74  78
1720777632,686:  -1356  74  78
1720777632,686:    189  74  78
1720777632,686:    786  74  78
1720777632,686:   -330  74  78
1720777632,686:  -1602  74  78
1720777632,686:  -1224  74  78
1720777632,686:    401  74  78
1720777632,718:   1224  74  78
1720777632,718:    259  74  78
1720777632,718:  -1123  74  78
1720777632,718:  -1020  74  78
1720777632,718:    407  74  78
1720777632,718:   1192  74  78
1720777632,718:    191  74  78
1720777632,718:  -1362  74  78
1720777632,718:  -1446  74  78
1720777632,718:     29  74  78
1720777632,718:   1147  74  78
1720777632,718:    532  74  78
1720777632,718:   -857  74  78
1720777632,718:  -1021  74  78
1720777632,718:    344  74  78
1720777632,750:   1453  74  78
1720777632,750:    822  74  78
1720777632,750:   -758  74  78
1720777632,750:  -1227  74  78
1720777632,750:    -43  74  78
1720777632,750:   1138  74  78
1720777632,750:    692  74  78
1720777632,750:   -819  74  78
1720777632,750:  -1378  74  78
1720777632,750:   -247  74  78
1720777632,750:   1060  74  78
1720777632,750:    823  74  78
1720777632,750:   -611  74  78
1720777632,750:  -1246  74  78
1720777632,750:   -152  74  78
1720777632,782:   1298  74  78
1720777632,782:   1275  74  78
1720777632,782:   -106  74  78
1720777632,782:   -940  74  78
1720777632,782:   -107  74  78
1720777632,782:   1225  74  78
1720777632,782:   1224  74  78
1720777632,782:   -174  74  78
1720777632,782:  -1117  74  78
1720777632,782:   -339  74  78
1720777632,782:   1147  74  78
1720777632,782:   1429  74  78
1720777632,782:    220  74  78
1720777632,782:   -765  74  78
1720777632,782:   -134  74  78
1720777632,815:   1277  74  78
1720777632,815:   1573  74  78
1720777632,815:    316  74  78
1720777632,815:   -829  74  78
1720777632,815:   -313  74  78
1720777632,815:   1205  74  78
1720777632,815:   1767  74  78
1720777632,815:    703  74  78
1720777632,815:   -477  74  78
1720777632,815:   -108  74  78
1720777632,815:   1353  74  78
1720777632,815:   1979  74  78
1720777632,815:    930  74  78
1720777632,815:   -395  74  78
1720777632,815:   -201  74  78
1720777632,847:   1274  74  78
1720777632,847:   2114  74  78
1720777632,847:   1268  74  78
1720777632,847:    -58  74  78
1720777632,847:    -20  74  78
1720777632,847:   1334  74  78
1720777632,847:   2160  74  78
1720777632,847:   1291  74  78
1720777632,847:   -181  74  78
1720777632,847:   -311  74  78
1720777632,847:   1053  74  78
1720777632,847:   2100  74  78
1720777632,847:   1471  74  78
1720777632,847:     59  74  78
1720777632,847:   -178  74  78
1720777632,847:   1102  74  78
1720777632,847:   2171  74  78
1720777632,847:   1554  74  78
1720777632,847:     -2  74  78
1720777632,847:   -469  74  78
1720777632,847:    707  74  78
1720777632,847:   1883  74  78
1720777632,878:   1435  74  78
1720777632,878:    -83  74  78
1720777632,878:   -650  74  78
1720777632,878:    476  74  78
1720777632,878:   1746  74  78
1720777632,878:   1408  74  78
1720777632,878:   -161  74  78
1720777632,878:   -880  74  78
1720777632,878:    236  74  78
1720777632,878:   1756  74  78
1720777632,878:   1746  74  78
1720777632,878:    309  74  78
1720777632,878:   -547  74  78
1720777632,878:    379  74  78
1720777632,878:   1836  74  78
1720777632,909:   1832  74  78
1720777632,909:    268  74  78
1720777632,909:   -849  74  78
1720777632,909:    -86  74  78
1720777632,909:   1497  74  78
1720777632,909:   1805  74  78
1720777632,909:    480  74  78
1720777632,909:   -616  74  78
1720777632,909:     86  74  78
1720777632,909:   1684  74  78
1720777632,909:   2039  74  78
1720777632,909:    600  74  78
1720777632,909:   -789  74  78
1720777632,909:   -329  74  78
1720777632,909:   1312  74  78
1720777632,941:   1934  74  78
1720777632,941:    731  74  78
1720777632,941:   -620  74  78
1720777632,941:   -205  74  78
1720777632,941:   1482  74  78
1720777632,941:   2202  74  78
1720777632,941:    945  74  78
1720777632,941:   -677  74  78
1720777632,941:   -520  74  78
1720777632,941:   1185  74  78
1720777632,941:   2172  74  78
1720777632,941:   1140  74  78
1720777632,941:   -508  74  78
1720777632,941:   -518  74  78
1720777632,941:   1134  74  78
1720777632,974:   2207  74  78
1720777632,974:   1182  74  78
1720777632,974:   -702  74  78
1720777632,974:  -1015  74  78
1720777632,974:    582  74  78
1720777632,974:   1941  74  78
1720777632,974:   1299  74  78
1720777632,974:   -377  74  78
1720777632,974:   -678  74  78
1720777632,974:    933  74  78
1720777632,974:   2365  74  78
1720777632,974:   1694  74  78
1720777632,974:   -278  74  78
1720777632,974:   -996  74  78
1720777632,974:    398  74  78
1720777633,005:   1951  74  78
1720777633,005:   1539  74  78
1720777633,005:   -298  74  78
1720777633,005:  -1037  74  78
1720777633,005:    395  74  78
1720777633,005:   2132  74  78
1720777633,005:   1864  74  78
1720777633,005:   -112  74  78
1720777633,005:  -1198  74  78
1720777633,005:     12  74  78
1720777633,005:   1862  74  78
1720777633,005:   1887  74  78
1720777633,005:     91  74  78
1720777633,005:  -1029  74  78
1720777633,005:    139  74  78
1720777633,037:   2082  74  78
1720777633,037:   2202  74  78
1720777633,037:    248  74  78
1720777633,037:  -1250  74  78
1720777633,037:   -349  74  78
1720777633,037:   1699  74  78
1720777633,037:   2167  74  78
1720777633,037:    471  74  78
1720777633,037:  -1022  74  78
1720777633,037:   -179  74  78
1720777633,037:   1950  74  78
1720777633,037:   2552  74  78
1720777633,037:    759  74  78
1720777633,037:  -1117  74  78
1720777633,037:   -633  74  78
1720777633,037:   1480  74  78
1720777633,037:   2354  74  78
1720777633,037:    804  74  78
1720777633,037:  -1053  74  78
1720777633,037:   -605  74  78
1720777633,037:   1650  74  78
1720777633,037:   2750  74  78
1720777633,037:   1170  74  78
1720777633,067:  -1103  74  78
1720777633,067:  -1125  74  78
1720777633,067:   1051  74  78
1720777633,067:   2507  74  78
1720777633,067:   1344  74  78
1720777633,067:   -788  74  78
1720777633,067:   -872  74  78
1720777633,067:   1341  74  78
1720777633,067:   2976  74  78
1720777633,067:   1844  74  78
1720777633,067:   -637  74  78
1720777633,067:  -1224  74  78
1720777633,067:    782  74  78
1720777633,067:   2657  74  78
1720777633,067:   1902  74  78
1720777633,098:   -429  74  78
1720777633,098:  -1097  74  78
1720777633,098:    903  74  78
1720777633,098:   2964  74  78
1720777633,098:   2336  74  78
1720777633,098:   -241  74  78
1720777633,098:  -1408  74  78
1720777633,098:    279  74  78
1720777633,098:   2467  74  78
1720777633,098:   2197  74  78
1720777633,098:   -148  74  78
1720777633,098:  -1313  74  78
1720777633,098:    402  74  78
1720777633,098:   2782  74  78
1720777633,098:   2663  74  78
1720777633,129:    106  74  78
1720777633,129:  -1560  74  78
1720777633,129:   -207  74  78
1720777633,129:   2270  74  78
1720777633,129:   2545  74  78
1720777633,129:    291  74  78
1720777633,129:  -1346  74  78
1720777633,129:     -1  74  78
1720777633,129:   2637  74  78
1720777633,129:   3097  74  78
1720777633,129:    697  74  78
1720777633,129:  -1440  74  78
1720777633,129:   -542  74  78
1720777633,129:   2098  74  78
1720777633,129:   2927  74  78
1720777633,160:    856  74  78
1720777633,160:  -1258  74  78
1720777633,160:   -437  74  78
1720777633,160:   2310  74  78
1720777633,160:   3360  74  78
1720777633,160:   1245  74  78
1720777633,160:  -1319  74  78
1720777633,160:  -1002  74  78
1720777633,160:   1661  74  78
1720777633,160:   3063  74  78
1720777633,160:   1330  74  78
1720777633,160:  -1173  74  78
1720777633,160:   -983  74  78
1720777633,160:   1708  74  78
1720777633,160:   3335  74  78
1720777633,191:   1685  74  78
1720777633,191:  -1123  74  78
1720777633,191:  -1382  74  78
1720777633,191:   1190  74  78
1720777633,191:   3145  74  78
1720777633,191:   1910  74  78
1720777633,191:   -783  74  78
1720777633,191:  -1192  74  78
1720777633,191:   1316  74  78
1720777633,191:   3415  74  78
1720777633,191:   2267  74  78
1720777633,191:   -696  74  78
1720777633,223:  -1568  74  78
1720777633,223:    746  74  78
1720777633,223:   3122  74  78
1720777633,223:   2420  74  78
1720777633,223:   -351  74  78
1720777633,223:  -1359  74  78
1720777633,223:    832  74  78
1720777633,223:   3312  74  78
1720777633,223:   2753  74  78
1720777633,223:   -179  74  78
1720777633,223:  -1590  74  78
1720777633,223:    378  74  78
1720777633,223:   3092  74  78
1720777633,223:   2975  74  78
1720777633,223:    241  74  78
1720777633,223:  -1388  74  78
1720777633,223:    290  74  78
1720777633,223:   2965  74  78
1720777633,223:   2985  74  78
1720777633,223:    189  74  78
1720777633,223:  -1767  74  78
1720777633,223:   -328  74  78
1720777633,223:   2565  74  78
1720777633,256:   3134  74  78
1720777633,256:    754  74  78
1720777633,256:  -1246  74  78
1720777633,256:    -97  74  78
1720777633,256:   2630  74  78
1720777633,256:   3235  74  78
1720777633,256:    812  74  78
1720777633,256:  -1459  74  78
1720777633,256:   -569  74  78
1720777633,256:   2273  74  78
1720777633,256:   3329  74  78
1720777633,256:   1275  74  78
1720777633,256:  -1074  74  78
1720777633,256:   -568  74  78
1720777633,256:   1995  74  78
1720777633,287:   3064  74  78
1720777633,287:   1085  74  78
1720777633,287:  -1370  74  78
1720777633,287:  -1028  74  78
1720777633,287:   1659  74  78
1720777633,287:   3191  74  78
1720777633,287:   1660  74  78
1720777633,287:   -765  74  78
1720777633,287:   -770  74  78
1720777633,287:   1577  74  78
1720777633,287:   3023  74  78
1720777633,287:   1514  74  78
1720777633,287:  -1018  74  78
1720777633,287:  -1178  74  78
1720777633,287:   1294  74  78
1720777633,318:   3223  74  78
1720777633,318:   2210  74  78
1720777633,318:   -255  74  78
1720777633,318:   -816  74  78
1720777633,318:   1177  74  78
1720777633,318:   2877  74  78
1720777633,318:   1829  74  78
1720777633,318:   -724  74  78
1720777633,318:  -1406  74  78
1720777633,318:    710  74  78
1720777633,318:   2900  74  78
1720777633,318:   2414  74  78
1720777633,318:     68  74  78
1720777633,318:   -881  74  78
1720777633,318:    831  74  78
1720777633,348:   2807  74  78
1720777633,348:   2283  74  78
1720777633,348:   -180  74  78
1720777633,348:  -1351  74  78
1720777633,348:    304  74  78
1720777633,348:   2591  74  78
1720777633,348:   2537  74  78
1720777633,348:    289  74  78
1720777633,348:  -1104  74  78
1720777633,348:    185  74  78
1720777633,348:   2328  74  78
1720777633,348:   2400  74  78
1720777633,348:    274  74  78
1720777633,348:  -1141  74  78
1720777633,348:    139  74  78
1720777633,379:   2473  74  78
1720777633,379:   2778  74  78
1720777633,379:    553  74  78
1720777633,379:  -1499  74  78
1720777633,379:  -1099  74  78
1720777633,379:    588  74  78
1720777633,379:    714  74  78
1720777633,379:  -1354  74  78
1720777633,379:  -3032  74  78
1720777633,379:  -1914  74  78
1720777633,379:   1031  74  78
1720777633,379:   2843  74  78
1720777633,379:   2495  74  78
1720777633,379:   2196  74  78
1720777633,379:   4342  74  78
1720777633,410:   8152  74  78
1720777633,410:  10714  74  78
1720777633,410:  10785  74  78
1720777633,410:  10391  74  78
1720777633,410:  12026  74  78
1720777633,410:  15143  74  78
1720777633,410:  16816  74  78
1720777633,410:  15501  74  78
1720777633,410:  12942  74  78
1720777633,410:  11751  74  78
1720777633,410:  11849  74  78
1720777633,410:  10762  74  78
1720777633,410:   7166  74  78
1720777633,410:   2937  74  78
1720777633,410:    938  74  78
1720777633,440:   1315  71  76
1720777633,440:   1446  71  76
1720777633,440:   -522  71  76
1720777633,440:  -3219  71  76
1720777633,440:  -3864  71  76
1720777633,440:  -2050  71  76
1720777633,440:   -327  71  76
1720777633,440:   -917  71  76
1720777633,440:  -2947  71  76
1720777633,440:  -3682  71  76
1720777633,440:  -2266  71  76
1720777633,440:   -781  71  76
1720777633,440:  -1397  71  76
1720777633,440:  -3482  71  76
1720777633,440:  -4441  71  76
1720777633,472:  -3221  71  76
1720777633,472:  -1683  71  76
1720777633,472:  -2019  71  76
1720777633,472:  -3829  71  76
1720777633,472:  -4591  71  76
1720777633,472:  -3107  71  76
1720777633,472:  -1150  71  76
1720777633,472:  -1125  71  76
1720777633,472:  -2936  71  76
1720777633,472:  -4112  71  76
1720777633,472:  -3111  71  76
1720777633,472:  -1352  71  76
1720777633,472:  -1209  71  76
1720777633,472:  -2847  71  76
1720777633,472:  -3946  71  76
1720777633,503:  -2857  71  76
1720777633,503:   -864  71  76
1720777633,503:   -470  71  76
1720777633,503:  -2094  71  76
1720777633,503:  -3491  71  76
1720777633,503:  -2727  71  76
1720777633,503:   -788  71  76
1720777633,503:   -202  71  76
1720777633,503:  -1700  71  76
1720777633,503:  -3207  71  76
1720777633,503:  -2606  71  76
1720777633,503:   -605  71  76
1720777633,503:    240  71  76
1720777633,503:  -1097  71  76
1720777633,503:  -2756  71  76
1720777633,503:  -2463  71  76
1720777633,503:   -618  71  76
1720777633,503:    308  71  76
1720777633,503:   -940  71  76
1720777633,503:  -2695  71  76
1720777633,503:  -2570  71  76
1720777633,503:   -695  71  76
1720777633,534:    498  71  76
1720777633,534:   -489  71  76
1720777633,534:  -2236  71  76
1720777633,534:  -2294  71  76
1720777633,534:   -528  71  76
1720777633,534:    737  71  76
1720777633,534:   -170  71  76
1720777633,534:  -2031  71  76
1720777633,534:  -2313  71  76
1720777633,534:   -619  71  76
1720777633,534:    818  71  76
1720777633,534:    127  71  76
1720777633,534:  -1713  71  76
1720777633,534:  -2160  71  76
1720777633,534:   -568  71  76
1720777633,565:    941  71  76
1720777633,565:    335  71  76
1720777633,565:  -1629  71  76
1720777633,565:  -2331  71  76
1720777633,565:   -832  71  76
1720777633,565:    903  71  76
1720777633,565:    638  71  76
1720777633,565:  -1181  71  76
1720777633,597:  -2018  71  76
1720777633,597:   -689  71  76
1720777633,597:   1036  71  76
1720777633,597:    843  71  76
1720777633,597:  -1059  71  76
1720777633,597:  -2134  71  76
1720777633,597:   -945  71  76
1720777633,597:    932  71  76
1720777633,597:   1049  71  76
1720777633,597:   -676  71  76
1720777633,597:  -1846  71  76
1720777633,597:   -830  71  76
1720777633,597:   1002  71  76
1720777633,597:   1160  71  76
1720777633,597:   -659  71  76
1720777633,597:  -2082  71  76
1720777633,597:  -1240  71  76
1720777633,597:    713  71  76
1720777633,597:   1188  71  76
1720777633,597:   -399  71  76
1720777633,597:  -1832  71  76
1720777633,597:  -1073  71  76
1720777633,627:    924  71  76
1720777633,627:   1517  71  76
1720777633,627:   -131  71  76
1720777633,627:  -1859  71  76
1720777633,627:  -1359  71  76
1720777633,627:    714  71  76
1720777633,627:   1659  71  76
1720777633,627:    310  71  76
1720777633,627:  -1417  71  76
1720777633,627:  -1085  71  76
1720777633,627:    914  71  76
1720777633,627:   1920  71  76
1720777633,627:    542  71  76
1720777633,627:  -1435  71  76
1720777633,627:  -1371  71  76
1720777633,657:    652  71  76
1720777633,657:   1987  71  76
1720777633,657:    947  71  76
1720777633,657:   -954  71  76
1720777633,657:  -1011  71  76
1720777633,657:    962  71  76
1720777633,657:   2384  71  76
1720777633,657:   1350  71  76
1720777633,657:   -814  71  76
1720777633,657:  -1235  71  76
1720777633,657:    618  71  76
1720777633,657:   2272  71  76
1720777633,657:   1562  71  76
1720777633,657:   -492  71  76
1720777633,657:  -1024  71  76
1720777633,688:    753  71  76
1720777633,688:   2466  71  76
1720777633,688:   1776  71  76
1720777633,688:   -508  71  76
1720777633,688:  -1386  71  76
1720777633,688:    286  71  76
1720777633,688:   2284  71  76
1720777633,688:   2002  71  76
1720777633,688:   -102  71  76
1720777633,688:  -1098  71  76
1720777633,688:    435  71  76
1720777633,688:   2449  71  76
1720777633,688:   2197  71  76
1720777633,688:   -128  71  76
1720777633,688:  -1531  71  76
1720777633,719:   -236  71  76
1720777633,719:   1953  71  76
1720777633,719:   2111  71  76
1720777633,719:     74  71  76
1720777633,719:  -1322  71  76
1720777633,719:    -77  71  76
1720777633,719:   2193  71  76
1720777633,719:   2450  71  76
1720777633,719:    249  71  76
1720777633,719:  -1559  71  76
1720777633,719:   -615  71  76
1720777633,719:   1779  71  76
1720777633,719:   2451  71  76
1720777633,719:    562  71  76
1720777633,719:  -1260  71  76
1720777633,751:   -447  71  76
1720777633,751:   1972  71  76
1720777633,751:   2779  71  76
1720777633,751:    825  71  76
1720777633,751:  -1368  71  76
1720777633,751:   -924  71  76
1720777633,751:   1502  71  76
1720777633,751:   2664  71  76
1720777633,751:   1044  71  76
1720777633,751:  -1118  71  76
1720777633,751:   -806  71  76
1720777633,751:   1624  71  76
1720777633,751:   2938  71  76
1720777633,751:   1311  71  76
1720777633,751:  -1198  71  76
1720777633,782:  -1306  71  76
1720777633,782:   1061  71  76
1720777633,782:   2733  71  76
1720777633,782:   1527  71  76
1720777633,782:   -859  71  76
1720777633,782:  -1103  71  76
1720777633,782:   1184  71  76
1720777633,782:   2930  71  76
1720777633,782:   1716  71  76
1720777633,782:   -987  71  76
1720777633,782:  -1660  71  76
1720777633,782:    507  71  76
1720777633,782:   2582  71  76
1720777633,782:   1819  71  76
1720777633,782:   -702  71  76
1720777633,814:  -1489  71  76
1720777633,814:    606  71  76
1720777633,814:   2822  71  76
1720777633,814:   2200  71  76
1720777633,814:   -510  71  76
1720777633,814:  -1736  71  76
1720777633,814:     92  71  76
1720777633,814:   2482  71  76
1720777633,814:   2262  71  76
1720777633,814:   -214  71  76
1720777633,814:  -1520  71  76
1720777633,814:    185  71  76
1720777633,814:   2622  71  76
1720777633,814:   2494  71  76
1720777633,814:   -149  71  76
1720777633,814:  -1851  71  76
1720777633,814:   -394  71  76
1720777633,814:   2236  71  76
1720777633,814:   2542  71  76
1720777633,814:    150  71  76
1720777633,814:  -1677  71  76
1720777633,814:   -426  71  76
1720777633,814:   2213  71  76
1720777633,846:   2671  71  76
1720777633,846:    218  71  76
1720777633,846:  -1967  71  76
1720777633,846:  -1022  71  76
1720777633,846:   1754  71  76
1720777633,846:   2705  71  76
1720777633,846:    654  71  76
1720777633,846:  -1541  71  76
1720777633,846:   -827  71  76
1720777633,846:   1853  71  76
1720777633,846:   2886  71  76
1720777633,846:    793  71  76
1720777633,846:  -1738  71  76
1720777633,846:  -1390  71  76
1720777633,846:   1302  71  76
1720777633,877:   2739  71  76
1720777633,877:   1039  71  76
1720777633,877:  -1468  71  76
1720777633,877:  -1349  71  76
1720777633,877:   1237  71  76
1720777633,877:   2800  71  76
1720777633,877:   1181  71  76
1720777633,877:  -1551  71  76
1720777633,877:  -1778  71  76
1720777633,877:    768  71  76
1720777633,877:   2713  71  76
1720777633,877:   1537  71  76
1720777633,877:  -1097  71  76
1720777633,877:  -1559  71  76
1720777633,877:    798  71  76
1720777633,908:   2794  71  76
1720777633,908:   1690  71  76
1720777633,908:  -1165  71  76
1720777633,908:  -2033  71  76
1720777633,908:    158  71  76
1720777633,908:   2440  71  76
1720777633,908:   1789  71  76
1720777633,908:   -884  71  76
1720777633,908:  -1939  71  76
1720777633,908:     50  71  76
1720777633,908:   2378  71  76
1720777633,908:   1885  71  76
1720777633,908:   -860  71  76
1720777633,908:  -2208  71  76
1720777633,908:   -371  71  76
1720777633,939:   2214  71  76
1720777633,939:   2172  71  76
1720777633,939:   -354  71  76
1720777633,939:  -1894  71  76
1720777633,939:   -342  71  76
1720777633,939:   2184  71  76
1720777633,939:   2260  71  76
1720777633,939:   -311  71  76
1720777633,939:  -2134  71  76
1720777633,939:   -794  71  76
1720777633,939:   1904  71  76
1720777633,939:   2404  71  76
1720777633,939:     98  71  76
1720777633,939:  -1858  71  76
1720777633,939:   -788  71  76
1720777633,970:   1849  71  76
1720777633,970:   2494  71  76
1720777633,970:    193  71  76
1720777633,970:  -2042  71  76
1720777633,970:  -1249  71  76
1720777633,970:   1503  71  76
1720777633,970:   2606  71  76
1720777633,970:    685  71  76
1720777633,970:  -1600  71  76
1720777633,970:  -1117  71  76
1720777633,970:   1457  71  76
1720777633,970:   2636  71  76
1720777633,970:    769  71  76
1720777633,970:  -1712  71  76
1720777633,970:  -1491  71  76
1720777634,002:   1133  71  76
1720777634,002:   2710  71  76
1720777634,002:   1230  71  76
1720777634,002:  -1227  71  76
1720777634,002:  -1268  71  76
1720777634,002:   1168  71  76
1720777634,002:   2772  71  76
1720777634,002:   1291  71  76
1720777634,002:  -1438  71  76
1720777634,002:  -1848  71  76
1720777634,002:    531  71  76
1720777634,002:   2501  71  76
1720777634,002:   1460  71  76
1720777634,002:  -1166  71  76
1720777634,002:  -1811  71  76
1720777634,002:    388  71  76
1720777634,002:   2455  71  76
1720777634,002:   1591  71  76
1720777634,002:  -1118  71  76
1720777634,002:  -2054  71  76
1720777634,002:     22  71  76
1720777634,002:   2353  71  76
1720777634,034:   1886  71  76
1720777634,034:   -693  71  76
1720777634,034:  -1860  71  76
1720777634,034:    -31  71  76
1720777634,034:   2297  71  76
1720777634,034:   1949  71  76
1720777634,034:   -722  71  76
1720777634,034:  -2185  71  76
1720777634,034:   -499  71  76
1720777634,034:   2099  71  76
1720777634,034:   2219  71  76
1720777634,034:   -211  71  76
1720777634,034:  -1843  71  76
1720777634,034:   -431  71  76
1720777634,034:   2100  71  76
1720777634,066:   2306  71  76
1720777634,066:   -215  71  76
1720777634,066:  -2174  71  76
1720777634,066:   -995  71  76
1720777634,066:   1722  71  76
1720777634,066:   2396  71  76
1720777634,066:    200  71  76
1720777634,066:  -1834  71  76
1720777634,066:   -892  71  76
1720777634,066:   1753  71  76
1720777634,066:   2518  71  76
1720777634,066:    258  71  76
1720777634,066:  -2110  71  76
1720777634,066:  -1464  71  76
1720777634,066:   1302  71  76
1720777634,097:   2529  71  76
1720777634,097:    648  71  76
1720777634,097:  -1728  71  76
1720777634,097:  -1287  71  76
1720777634,097:   1434  71  76
1720777634,097:   2802  71  76
1720777634,097:    906  71  76
1720777634,097:  -1843  71  76
1720777634,097:  -1839  71  76
1720777634,097:    826  71  76
1720777634,097:   2552  71  76
1720777634,097:   1026  71  76
1720777634,097:  -1691  71  76
1720777634,097:  -1876  71  76
1720777634,097:    760  71  76
1720777634,128:   2679  71  76
1720777634,128:   1229  71  76
1720777634,128:  -1806  71  76
1720777634,128:  -2447  71  76
1720777634,128:     91  71  76
1720777634,128:   2408  71  76
1720777634,128:   1464  71  76
1720777634,128:  -1375  71  76
1720777634,128:  -2124  71  76
1720777634,128:    376  71  76
1720777634,128:   2840  71  76
1720777634,128:   1933  71  76
1720777634,128:  -1291  71  76
1720777634,128:  -2620  71  76
1720777634,128:   -366  71  76
1720777634,160:   2400  71  76
1720777634,160:   1979  71  76
1720777634,160:  -1027  71  76
1720777634,160:  -2436  71  76
1720777634,160:   -158  71  76
1720777634,160:   2887  71  76
1720777634,160:   2653  71  76
1720777634,160:   -700  71  76
1720777634,160:  -2834  71  76
1720777634,160:  -1033  71  76
1720777634,160:   2181  71  76
1720777634,160:   2478  71  76
1720777634,160:   -506  71  76
1720777634,160:  -2604  71  76
1720777634,160:   -737  71  76
1720777634,160:   2774  71  76
1720777634,160:   3292  71  76
1720777634,160:    -26  71  76
1720777634,160:  -2922  71  76
1720777634,160:  -1669  71  76
1720777634,160:   1905  71  76
1720777634,160:   2945  71  76
1720777634,160:     47  71  76
1720777634,191:  -2755  71  76
1720777634,191:  -1370  71  76
1720777634,191:   2641  71  76
1720777634,191:   4083  71  76
1720777634,222:    937  71  76
1720777634,222:  -2798  71  76
1720777634,222:  -2313  71  76
1720777634,222:   1526  71  76
1720777634,222:   3444  71  76
1720777634,222:    825  71  76
1720777634,222:  -2679  71  76
1720777634,222:  -1972  71  76
1720777634,222:   2366  71  76
1720777634,222:   4677  71  76
1720777634,222:   1609  71  76
1720777634,222:  -3326  71  76
1720777634,222:  -4178  71  76
1720777634,222:   -521  71  76
1720777634,222:   2142  71  76
1720777634,222:   -173  71  76
1720777634,222:  -4424  71  76
1720777634,222:  -4398  71  76
1720777634,222:    793  71  76
1720777634,222:   5366  71  76
1720777634,222:   4452  71  76
1720777634,222:    583  71  76
1720777634,222:    575  71  76
1720777634,253:   6248  71  76
1720777634,253:  11988  71  76
1720777634,253:  12201  71  76
1720777634,253:   8796  71  76
1720777634,253:   8737  71  76
1720777634,253:  14409  71  76
1720777634,253:  19971  71  76
1720777634,253:  18841  71  76
1720777634,253:  12271  71  76
1720777634,253:   7998  71  76
1720777634,253:   9882  71  76
1720777634,253:  12910  71  76
1720777634,253:  10170  71  76
1720777634,253:   2430  71  76
1720777634,253:  -2368  71  76
1720777634,284:    344  71  74
1720777634,284:   5328  71  74
1720777634,284:   4383  71  74
1720777634,284:  -2894  71  74
1720777634,284:  -8106  71  74
1720777634,284:  -5203  71  74
1720777634,284:   1365  71  74
1720777634,284:   2576  71  74
1720777634,284:  -3201  71  74
1720777634,284:  -7800  71  74
1720777634,284:  -4202  71  74
1720777634,284:   3581  71  74
1720777634,284:   5589  71  74
1720777634,284:  -1105  71  74
1720777634,284:  -8135  71  74
1720777634,316:  -6767  71  74
1720777634,316:    419  71  74
1720777634,316:   3246  71  74
1720777634,316:  -2327  71  74
1720777634,316:  -8412  71  74
1720777634,316:  -5614  71  74
1720777634,316:   3784  71  74
1720777634,316:   8406  71  74
1720777634,316:   2459  71  74
1720777634,316:  -6398  71  74
1720777634,316:  -6881  71  74
1720777634,316:    885  71  74
1720777634,316:   5909  71  74
1720777634,316:   1155  71  74
1720777634,316:  -6839  71  74
1720777634,347:  -6550  71  74
1720777634,347:   2653  71  74
1720777634,347:   9429  71  74
1720777634,347:   5299  71  74
1720777634,347:  -4104  71  74
1720777634,347:  -6275  71  74
1720777634,347:   1297  71  74
1720777634,347:   8082  71  74
1720777634,347:   4775  71  74
1720777634,347:  -4154  71  74
1720777634,347:  -6249  71  74
1720777634,347:   1926  71  74
1720777634,347:  10034  71  74
1720777634,347:   7644  71  74
1720777634,347:  -2044  71  74
1720777634,378:  -6186  71  74
1720777634,378:    426  71  74
1720777634,378:   8711  71  74
1720777634,378:   7671  71  74
1720777634,378:  -1001  71  74
1720777634,378:  -5209  71  74
1720777634,378:   1046  71  74
1720777634,378:   9526  71  74
1720777634,378:   8973  71  74
1720777634,378:    -15  71  74
1720777634,378:  -5492  71  74
1720777634,378:   -278  71  74
1720777634,378:   8583  71  74
1720777634,378:   9484  71  74
1720777634,378:   1592  71  74
1720777634,409:  -4154  71  74
1720777634,409:     71  71  74
1720777634,409:   8383  71  74
1720777634,409:   9439  71  74
1720777634,409:   1517  71  74
1720777634,409:  -4923  71  74
1720777634,409:  -1303  71  74
1720777634,409:   7622  71  74
1720777634,409:  10348  71  74
1720777634,409:   3775  71  74
1720777634,409:  -2890  71  74
1720777634,409:   -653  71  74
1720777634,409:   7054  71  74
1720777634,409:   9452  71  74
1720777634,409:   2860  71  74
1720777634,440:  -4156  71  74
1720777634,440:  -2219  71  74
1720777634,440:   6224  71  74
1720777634,440:  10355  71  74
1720777634,440:   5230  71  74
1720777634,440:  -1912  71  74
1720777634,440:  -1486  71  74
1720777634,440:   5412  71  74
1720777634,440:   8939  71  74
1720777634,440:   3820  71  74
1720777634,440:  -3436  71  74
1720777634,440:  -3105  71  74
1720777634,440:   4559  71  74
1720777634,440:   9814  71  74
1720777634,440:   6273  71  74
1720777634,440:   -876  71  74
1720777634,440:  -1935  71  74
1720777634,440:   4110  71  74
1720777634,440:   8595  71  74
1720777634,440:   4996  71  74
1720777634,440:  -2258  71  74
1720777634,440:  -3505  71  74
1720777634,471:   3043  71  74
1720777634,471:   9031  71  74
1720777634,471:   7030  71  74
1720777634,471:    146  71  74
1720777634,471:  -2278  71  74
1720777634,471:   2631  71  74
1720777634,471:   7685  71  74
1720777634,471:   5590  71  74
1720777634,471:  -1259  71  74
1720777634,471:  -3724  71  74
1720777634,471:   1643  71  74
1720777634,471:   8023  71  74
1720777634,471:   7403  71  74
1720777634,471:    998  71  74
1720777634,471:  -2465  71  74
1720777634,502:   1428  71  74
1720777634,502:   6985  71  74
1720777634,502:   6359  71  74
1720777634,502:     20  71  74
1720777634,502:  -3620  71  74
1720777634,502:    399  71  74
1720777634,502:   6947  71  74
1720777634,502:   7708  71  74
1720777634,502:   2065  71  74
1720777634,502:  -2164  71  74
1720777634,502:    678  71  74
1720777634,502:   6442  71  74
1720777634,502:   7037  71  74
1720777634,502:   1232  71  74
1720777634,502:  -3408  71  74
1720777634,533:   -668  71  74
1720777634,533:   5926  71  74
1720777634,533:   7880  71  74
1720777634,533:   2891  71  74
1720777634,533:  -2138  71  74
1720777634,533:   -395  71  74
1720777634,533:   5555  71  74
1720777634,533:   7446  71  74
1720777634,533:   2342  71  74
1720777634,533:  -3203  71  74
1720777634,533:  -1819  71  74
1720777634,533:   4701  71  74
1720777634,533:   7879  71  74
1720777634,533:   3721  71  74
1720777634,533:  -2011  71  74
1720777634,565:  -1494  71  74
1720777634,565:   4486  71  74
1720777634,565:   7751  71  74
1720777634,565:   3641  71  74
1720777634,565:  -2640  71  74
1720777634,565:  -2798  71  74
1720777634,565:   3310  71  74
1720777634,565:   7600  71  74
1720777634,565:   4490  71  74
1720777634,565:  -1683  71  74
1720777634,565:  -2395  71  74
1720777634,565:   3421  71  74
1720777634,565:   7968  71  74
1720777634,565:   4966  71  74
1720777634,565:  -1955  71  74
1720777634,597:  -3799  71  74
1720777634,597:   1666  71  74
1720777634,597:   7080  71  74
1720777634,597:   5316  71  74
1720777634,597:  -1089  71  74
1720777634,597:  -3271  71  74
1720777634,597:   1894  71  74
1720777634,597:   7563  71  74
1720777634,597:   6115  71  74
1720777634,597:   -741  71  74
1720777634,597:  -3951  71  74
1720777634,597:    628  71  74
1720777634,597:   6768  71  74
1720777634,597:   6265  71  74
1720777634,597:   -141  71  74
1720777634,627:  -3629  71  74
1720777634,627:    747  71  74
1720777634,627:   7243  71  74
1720777634,627:   7141  71  74
1720777634,627:    261  71  74
1720777634,627:  -4433  71  74
1720777634,627:   -873  71  74
1720777634,627:   6027  71  74
1720777634,627:   7038  71  74
1720777634,627:    892  71  74
1720777634,627:  -3875  71  74
1720777634,627:   -415  71  74
1720777634,627:   6956  71  74
1720777634,627:   8517  71  74
1720777634,627:   1937  71  74
1720777634,658:  -4287  71  74
1720777634,658:  -2098  71  74
1720777634,658:   5308  71  74
1720777634,658:   7917  71  74
1720777634,658:   2232  71  74
1720777634,658:  -3890  71  74
1720777634,658:  -1717  71  74
1720777634,658:   6288  71  74
1720777634,658:   9689  71  74
1720777634,658:   3773  71  74
1720777634,658:  -3915  71  74
1720777634,658:  -3419  71  74
1720777634,658:   4240  71  74
1720777634,658:   8635  71  74
1720777634,658:   3836  71  74
1720777634,689:  -3523  71  74
1720777634,689:  -2990  71  74
1720777634,689:   5308  71  74
1720777634,689:  10709  71  74
1720777634,689:   5999  71  74
1720777634,689:  -2860  71  74
1720777634,689:  -4356  71  74
1720777634,689:   3094  71  74
1720777634,689:   9206  71  74
1720777634,689:   5614  71  74
1720777634,689:  -2818  71  74
1720777634,689:  -4244  71  74
1720777634,689:   3986  71  74
1720777634,689:  11531  71  74
1720777634,689:   8579  71  74
1720777634,721:  -1177  71  74
1720777634,721:  -5070  71  74
1720777634,721:   1592  71  74
1720777634,721:   9456  71  74
1720777634,721:   7749  71  74
1720777634,721:  -1274  71  74
1720777634,721:  -5071  71  74
1720777634,721:   2176  71  74
1720777634,721:  11476  71  74
1720777634,721:  10827  71  74
1720777634,721:    939  71  74
1720777634,721:  -5331  71  74
1720777634,721:   -130  71  74
1720777634,721:   9113  71  74
1720777634,721:   9806  71  74
1720777634,721:    943  71  74
1720777634,721:  -5415  71  74
1720777634,721:   -404  71  74
1720777634,721:   9575  71  74
1720777634,721:  11516  71  74
1720777634,721:   2890  71  74
1720777634,721:  -4744  71  74
1720777634,721:  -1312  71  74
1720777634,752:   8334  71  74
1720777634,752:  11166  71  74
1720777634,752:   3395  71  74
1720777634,752:  -4342  71  74
1720777634,752:  -1296  71  74
1720777634,752:   8687  71  74
1720777634,752:  12410  71  74
1720777634,752:   4749  71  74
1720777634,752:  -4269  71  74
1720777634,752:  -2812  71  74
1720777634,752:   6949  71  74
1720777634,752:  12010  71  74
1720777634,752:   5851  71  74
1720777634,752:  -2904  71  74
1720777634,752:  -2126  71  74
1720777634,784:   7236  71  74
1720777634,784:  12601  71  74
1720777634,784:   6530  71  74
1720777634,784:  -3148  71  74
1720777634,784:  -3632  71  74
1720777634,784:   5624  71  74
1720777634,784:  12409  71  74
1720777634,784:   8027  71  74
1720777634,784:  -1226  71  74
1720777634,784:  -2556  71  74
1720777634,784:   5847  71  74
1720777634,784:  12549  71  74
1720777634,784:   8243  71  74
1720777634,784:  -1703  71  74
1720777634,784:  -4172  71  74
1720777634,816:   3976  71  74
1720777634,816:  11902  71  74
1720777634,816:   9306  71  74
1720777634,816:     35  71  74
1720777634,816:  -3102  71  74
1720777634,816:   4173  71  74
1720777634,816:  11929  71  74
1720777634,846:   9451  71  74
1720777634,846:   -386  71  74
1720777634,846:  -4611  71  74
1720777634,846:   2330  71  74
1720777634,846:  11277  71  74
1720777634,846:  10647  71  74
1720777634,846:   1700  71  74
1720777634,846:  -3189  71  74
1720777634,846:   2616  71  74
1720777634,846:  11103  71  74
1720777634,846:  10557  71  74
1720777634,846:   1220  71  74
1720777634,846:  -4656  71  74
1720777634,846:    670  71  74
1720777634,846:  10119  71  74
1720777634,877:  11399  71  74
1720777634,877:   3223  71  74
1720777634,877:  -3009  71  74
1720777634,877:   1284  71  74
1720777634,877:  10200  71  74
1720777634,877:  11506  71  74
1720777634,877:   2953  71  74
1720777634,877:  -4351  71  74
1720777634,877:   -828  71  74
1720777634,877:   8754  71  74
1720777634,877:  11845  71  74
1720777634,877:   4696  71  74
1720777634,877:  -2734  71  74
1720777634,877:   -285  71  74
1720777634,877:   8555  71  74
1720777634,877:  11632  71  74
1720777634,877:   4379  71  74
1720777634,877:  -3801  71  74
1720777634,877:  -2063  71  74
1720777634,877:   7221  71  74
1720777634,877:  11827  71  74
1720777634,877:   5888  71  74
1720777634,877:  -2338  71  74
1720777634,908:  -1566  98  78
1720777634,908:   7110  98  78
1720777634,908:  11910  98  78
1720777634,908:   6088  98  78
1720777634,908:  -2892  98  78
1720777634,908:  -3157  98  78
1720777634,908:   5537  98  78
1720777634,908:  11713  98  78
1720777634,908:   7443  98  78
1720777634,908:  -1206  98  78
1720777634,908:  -2346  98  78
1720777634,908:   5482  98  78
1720777634,908:  11517  98  78
1720777634,908:   7275  98  78
1720777634,908:  -2024  98  78
1720777634,940:  -4105  98  78
1720777634,940:   3744  98  78
1720777634,940:  11227  98  78
1720777634,940:   8752  98  78
1720777634,940:     21  98  78
1720777634,940:  -2979  98  78
1720777634,940:   3695  98  78
1720777634,940:  10790  98  78
1720777634,940:   8469  98  78
1720777634,940:   -536  98  78
1720777634,940:  -4251  98  78
1720777634,940:   2274  98  78
1720777634,940:  10433  98  78
1720777634,940:   9631  98  78
1720777634,940:   1275  98  78
1720777634,971:  -3098  98  78
1720777634,971:   2503  98  78
1720777634,971:  10408  98  78
1720777634,971:   9760  98  78
1720777634,971:    940  98  78
1720777634,971:  -4538  98  78
1720777634,971:    484  98  78
1720777634,971:   9303  98  78
1720777634,971:  10424  98  78
1720777634,971:   2720  98  78
1720777634,971:  -3106  98  78
1720777634,971:    981  98  78
1720777634,971:   9379  98  78
1720777634,971:  10606  98  78
1720777634,971:   2535  98  78
1720777635,002:  -4400  98  78
1720777635,002:  -1157  98  78
1720777635,002:   7804  98  78
1720777635,002:  10655  98  78
1720777635,002:   3833  98  78
1720777635,002:  -3260  98  78
1720777635,002:   -934  98  78
1720777635,002:   7570  98  78
1720777635,002:  10709  98  78
1720777635,002:   3978  98  78
1720777635,002:  -3837  98  78
1720777635,002:  -2350  98  78
1720777635,002:   6412  98  78
1720777635,002:  10926  98  78
1720777635,002:   5450  98  78
1720777635,032:  -2416  98  78
1720777635,032:  -1948  98  78
1720777635,032:   6052  98  78
1720777635,032:  10606  98  78
1720777635,032:   5250  98  78
1720777635,032:  -3174  98  78
1720777635,032:  -3472  98  78
1720777635,032:   4738  98  78
1720777635,032:  10694  98  78
1720777635,032:   6798  98  78
1720777635,032:  -1361  98  78
1720777635,032:  -2488  98  78
1720777635,032:   4946  98  78
1720777635,032:  10746  98  78
1720777635,032:   6647  98  78
1720777635,064:  -2588  98  78
1720777635,064:  -5314  98  78
1720777635,064:   1513  98  78
1720777635,064:   8440  98  78
1720777635,064:   6194  98  78
1720777635,064:  -2048  98  78
1720777635,064:  -4792  98  78
1720777635,064:   2266  98  78
1720777635,064:  10544  98  78
1720777635,064:  10044  98  78
1720777635,064:   2506  98  78
1720777635,064:   -520  98  78
1720777635,064:   6896  98  78
1720777635,064:  17256  98  78
1720777635,064:  19386  98  78
1720777635,064:  12681  98  78
1720777635,064:   7624  98  78
1720777635,064:  11637  98  78
1720777635,064:  19376  98  78
1720777635,064:  20311  98  78
1720777635,064:  12604  98  78
1720777635,064:   5604  98  78
1720777635,096:   6953  98  78
1720777635,096:  12408  98  78
1720777635,096:  12068  98  78
1720777635,096:   4053  98  78
1720777635,096:  -2631  98  78
1720777635,096:   -402  98  78
1720777635,096:   6155  98  78
1720777635,096:   6458  98  78
1720777635,096:  -1829  98  78
1720777635,096:  -8981  98  78
1720777635,096:  -6033  98  78
1720777635,096:   3006  98  78
1720777635,096:   6398  98  78
1720777635,096:      9  98  78
1720777635,096:  -7275  98  78
1720777635,127:  -5564  98  78
1720777635,127:   2701  98  78
1720777635,127:   6204  98  78
1720777635,127:    -38  98  78
1720777635,127:  -7796  98  78
1720777635,127:  -6676  98  78
1720777635,127:   1808  98  78
1720777635,127:   6497  98  78
1720777635,127:   1454  98  78
1720777635,127:  -6197  98  78
1720777635,127:  -5834  98  78
1720777635,127:   2134  98  78
1720777635,127:   7045  98  78
1720777635,127:   2228  98  78
1720777635,127:  -6016  98  78
1720777635,159:  -6648  98  78
1720777635,159:   1168  98  78
1720777635,159:   7207  98  78
1720777635,159:   3843  98  78
1720777635,159:  -3914  98  78
1720777635,159:  -5163  98  78
1720777635,159:   1947  98  78
1720777635,159:   7849  98  78
1720777635,159:   4436  98  78
1720777635,159:  -4064  98  78
1720777635,159:  -6393  98  78
1720777635,159:    533  98  78
1720777635,159:   7687  98  78
1720777635,159:   5986  98  78
1720777635,159:  -1788  98  78
1720777635,190:  -4745  98  78
1720777635,190:   1254  98  78
1720777635,190:   8072  98  78
1720777635,190:   6373  98  78
1720777635,190:  -1940  98  78
1720777635,190:  -5887  98  78
1720777635,190:   -231  98  78
1720777635,190:   7592  98  78
1720777635,190:   7474  98  78
1720777635,190:    -56  98  78
1720777635,190:  -4538  98  78
1720777635,190:    243  98  78
1720777635,190:   7827  98  78
1720777635,190:   7935  98  78
1720777635,190:     93  98  78
1720777635,190:  -5392  98  78
1720777635,190:  -1283  98  78
1720777635,190:   6926  98  78
1720777635,190:   8491  98  78
1720777635,190:   1596  98  78
1720777635,221:  -4242  98  78
1720777635,221:  -1013  98  78
1720777635,221:   6876  98  78
1720777635,221:   8755  98  78
1720777635,221:   1830  98  78
1720777635,221:  -4819  98  78
1720777635,221:  -2353  98  78
1720777635,221:   5942  98  78
1720777635,221:   9222  98  78
1720777635,221:   3410  98  78
1720777635,221:  -3443  98  78
1720777635,221:  -1988  98  78
1720777635,221:   5684  98  78
1720777635,221:   9118  98  78
1720777635,221:   3428  98  78
1720777635,253:  -4004  98  78
1720777635,253:  -3291  98  78
1720777635,253:   4578  98  78
1720777635,253:   9253  98  78
1720777635,253:   4755  98  78
1720777635,253:  -2626  98  78
1720777635,253:  -2752  98  78
1720777635,253:   4510  98  78
1720777635,253:   9287  98  78
1720777635,253:   4906  98  78
1720777635,253:  -3106  98  78
1720777635,253:  -4162  98  78
1720777635,253:   3062  98  78
1720777635,253:   9041  98  78
1720777635,253:   6079  98  78
1720777635,285:  -1554  98  78
1720777635,285:  -3344  98  78
1720777635,285:   3110  98  78
1720777635,285:   8976  98  78
1720777635,285:   6114  98  78
1720777635,285:  -2036  98  78
1720777635,285:  -4723  98  78
1720777635,285:   1551  98  78
1720777635,285:   8480  98  78
1720777635,285:   7074  98  78
1720777635,285:   -480  98  78
1720777635,285:  -3727  98  78
1720777635,285:   1827  98  78
1720777635,285:   8666  98  78
1720777635,285:   7479  98  78
1720777635,316:   -473  98  78
1720777635,316:  -4694  98  78
1720777635,316:    361  98  78
1720777635,316:   7945  98  78
1720777635,316:   8127  98  78
1720777635,316:    919  98  78
1720777635,316:  -3714  98  78
1720777635,316:    641  98  78
1720777635,316:   8103  98  78
1720777635,316:   8552  98  78
1720777635,316:   1039  98  78
1720777635,316:  -4598  98  78
1720777635,316:   -929  98  78
1720777635,316:   7128  98  78
1720777635,316:   9008  98  78
1720777635,347:   2471  98  78
1720777635,347:  -3386  98  78
1720777635,347:   -381  98  78
1720777635,347:   7543  98  78
1720777635,347:   9765  98  78
1720777635,347:   3036  98  78
1720777635,347:  -3900  98  78
1720777635,347:  -1916  98  78
1720777635,347:   6226  98  78
1720777635,347:   9743  98  78
1720777635,347:   4125  98  78
1720777635,347:  -2843  98  78
1720777635,347:  -1503  98  78
1720777635,347:   6442  98  78
1720777635,347:  10339  98  78
1720777635,377:   4714  98  78
1720777635,377:  -3238  98  78
1720777635,377:  -3074  98  78
1720777635,377:   4820  98  78
1720777635,377:   9940  98  78
1720777635,377:   5625  98  78
1720777635,377:  -2101  98  78
1720777635,377:  -2565  98  78
1720777635,377:   4941  98  78
1720777635,377:  10319  98  78
1720777635,377:   6129  98  78
1720777635,377:  -2401  98  78
1720777635,377:  -4080  98  78
1720777635,377:   3120  98  78
1720777635,377:   9544  98  78
1720777635,377:   6754  98  78
1720777635,377:  -1273  98  78
1720777635,377:  -3417  98  78
1720777635,377:   3408  98  78
1720777635,377:  10118  98  78
1720777635,377:   7637  98  78
1720777635,377:  -1025  98  78
1720777635,377:  -4456  98  78
1720777635,408:   1721  98  78
1720777635,408:   9158  98  78
1720777635,408:   8022  98  78
1720777635,408:     47  98  78
1720777635,408:  -3715  98  78
1720777635,408:   2055  98  78
1720777635,408:   9687  98  78
1720777635,408:   8884  98  78
1720777635,408:    367  98  78
1720777635,408:  -4697  98  78
1720777635,408:    254  98  78
1720777635,408:   8502  98  78
1720777635,408:   9153  98  78
1720777635,408:   1591  98  78
1720777635,408:  -3673  98  78
1720777635,440:    739  98  78
1720777635,440:   8978  98  78
1720777635,440:   9956  98  78
1720777635,440:   2046  98  78
1720777635,440:  -4422  98  78
1720777635,440:  -1008  98  78
1720777635,440:   7563  98  78
1720777635,440:   9924  98  78
1720777635,440:   3139  98  78
1720777635,440:  -3415  98  78
1720777635,440:   -706  98  78
1720777635,440:   7615  98  78
1720777635,440:  10349  98  78
1720777635,440:   3601  98  78
1720777635,440:  -3818  98  78
1720777635,472:  -2127  98  78
1720777635,472:   6329  98  78
1720777635,472:  10456  98  78
1720777635,472:   5077  98  78
1720777635,472:  -2371  98  78
1720777635,472:  -1902  98  78
1720777635,472:   5466  98  78
1720777635,472:   9513  98  78
1720777635,472:   4556  98  78
1720777635,472:  -2868  98  78
1720777635,472:  -2713  98  78
1720777635,472:   4908  98  78
1720777635,472:  10070  98  78
1720777635,472:   6243  98  78
1720777635,472:  -1143  98  78
1720777635,503:  -2004  98  78
1720777635,503:   4615  98  78
1720777635,503:   9491  98  78
1720777635,503:   5651  98  78
1720777635,503:  -2218  98  78
1720777635,503:  -3752  98  78
1720777635,503:   3054  98  78
1720777635,503:   9322  98  78
1720777635,503:   7105  98  78
1720777635,503:   -199  98  78
1720777635,503:  -2444  98  78
1720777635,503:   3383  98  78
1720777635,503:   9166  98  78
1720777635,503:   6678  98  78
1720777635,503:  -1351  98  78
1720777635,534:  -4451  98  78
1720777635,534:   1450  98  78
1720777635,534:   8643  98  78
1720777635,534:   7892  98  78
1720777635,534:    571  98  78
1720777635,534:  -3172  98  78
1720777635,534:   1813  98  78
1720777635,534:   8726  98  78
1720777635,534:   8092  98  78
1720777635,534:    366  98  78
1720777635,534:  -4319  98  78
1720777635,534:    175  98  78
1720777635,534:   7791  98  78
1720777635,534:   8472  98  78
1720777635,534:   1448  98  78
1720777635,565:  -3673  98  78
1720777635,565:    123  98  78
1720777635,565:   7699  98  78
1720777635,565:   8819  98  78
1720777635,565:   1693  98  78
1720777635,565:  -4349  98  78
1720777635,565:  -1358  98  78
1720777635,565:   6587  98  78
1720777635,565:   9007  98  78
1720777635,565:   2910  98  78
1720777635,565:  -3228  98  78
1720777635,565:   -897  98  78
1720777635,565:   6772  98  78
1720777635,565:   9412  98  78
1720777635,565:   3176  98  78
1720777635,596:  -3879  98  78
1720777635,596:  -2465  98  78
1720777635,596:   5407  98  78
1720777635,596:   9304  98  78
1720777635,596:   4226  98  78
1720777635,596:  -2770  98  78
1720777635,596:  -2015  98  78
1720777635,596:   5526  98  78
1720777635,596:   9720  98  78
1720777635,596:   4749  98  78
1720777635,596:  -2998  98  78
1720777635,596:  -3269  98  78
1720777635,596:   4188  98  78
1720777635,596:   9492  98  78
1720777635,596:   5790  98  78
1720777635,627:  -1705  98  78
1720777635,627:  -2680  98  78
1720777635,627:   4179  98  78
1720777635,627:   9560  98  78
1720777635,627:   6032  98  78
1720777635,627:  -1996  98  78
1720777635,627:  -3874  98  78
1720777635,627:   2860  98  78
1720777635,627:   9354  98  78
1720777635,627:   7270  98  78
1720777635,627:   -239  98  78
1720777635,627:  -2766  98  78
1720777635,627:   3142  98  78
1720777635,627:   9386  98  78
1720777635,627:   7294  98  78
1720777635,658:   -818  98  78
1720777635,658:  -4389  98  78
1720777635,658:   1127  98  78
1720777635,658:   8290  98  78
1720777635,658:   7695  98  78
1720777635,658:    361  98  78
1720777635,658:  -3634  98  78
1720777635,658:   1180  98  78
1720777635,658:   8269  98  78
1720777635,658:   8037  98  78
1720777635,658:    534  98  78
1720777635,658:  -4310  98  78
1720777635,658:    -56  98  78
1720777635,658:   7674  98  78
1720777635,658:   8827  98  78
1720777635,689:   2161  98  78
1720777635,689:  -3144  98  78
1720777635,689:    105  98  78
1720777635,689:   7346  98  78
1720777635,689:   8657  98  78
1720777635,689:   1924  98  78
1720777635,689:  -4068  98  78
1720777635,689:  -1394  98  78
1720777635,689:   6361  98  78
1720777635,689:   9051  98  78
1720777635,689:   3368  98  78
1720777635,689:  -2812  98  78
1720777635,689:  -1040  98  78
1720777635,689:   6179  98  78
1720777635,689:   9010  98  78
1720777635,689:   3381  98  78
1720777635,689:  -3395  98  78
1720777635,689:  -2310  98  78
1720777635,689:   5153  98  78
1720777635,689:   9175  98  78
1720777635,689:   4613  98  78
1720777635,689:  -2225  98  78
1720777635,721:  -2039  98  78
1720777635,721:   4754  98  78
1720777635,721:   8793  98  78
1720777635,721:   4318  98  78
1720777635,721:  -3010  98  78
1720777635,721:  -3459  98  78
1720777635,721:   3575  98  78
1720777635,721:   8900  98  78
1720777635,752:   5725  98  78
1720777635,752:  -1388  98  78
1720777635,752:  -2614  98  78
1720777635,752:   3719  98  78
1720777635,752:   8983  98  78
1720777635,752:   5849  98  78
1720777635,752:  -1886  98  78
1720777635,752:  -4050  98  78
1720777635,752:   2128  98  78
1720777635,752:   8435  98  78
1720777635,752:   6636  98  78
1720777635,752:   -639  98  78
1720777635,752:  -3352  98  78
1720777635,752:   2284  98  78
1720777635,752:   8665  98  78
1720777635,752:   7055  98  78
1720777635,752:   -799  98  78
1720777635,752:  -4605  98  78
1720777635,752:    578  98  78
1720777635,752:   7796  98  78
1720777635,752:   7544  98  78
1720777635,752:    361  98  78
1720777635,783:  -3771  98  78
1720777635,783:   1039  98  78
1720777635,783:   8457  98  78
1720777635,783:   8468  98  78
1720777635,783:    622  98  78
1720777635,783:  -4924  98  78
1720777635,783:   -983  98  78
1720777635,783:   7036  98  78
1720777635,783:   8464  98  78
1720777635,783:   1536  98  78
1720777635,783:  -4079  98  78
1720777635,783:   -287  98  78
1720777635,783:   8182  98  78
1720777635,783:  10036  98  78
1720777635,783:   2280  98  78
1720777635,815:  -5514  98  78
1720777635,815:  -3845  98  78
1720777635,815:   4253  98  78
1720777635,815:   7385  98  78
1720777635,815:   1035  98  78
1720777635,815:  -6170  98  78
1720777635,815:  -3765  98  78
1720777635,815:   6290  98  78
1720777635,815:  12131  98  78
1720777635,815:   7303  98  78
1720777635,815:   -543  98  78
1720777635,815:    534  98  78
1720777635,815:  10907  98  78
1720777635,815:  18969  98  78
1720777635,815:  16111  98  78
1720777635,847:   7820  64  76
1720777635,847:   6401  64  76
1720777635,847:  14427  64  76
1720777635,847:  21589  64  76
1720777635,847:  18324  64  76
1720777635,847:   8364  64  76
1720777635,847:   3691  64  76
1720777635,847:   8117  64  76
1720777635,847:  12632  64  76
1720777635,847:   8177  64  76
1720777635,847:  -1498  64  76
1720777635,847:  -4451  64  76
1720777635,847:   2678  64  76
1720777635,847:   9427  64  76
1720777635,847:   5247  64  76
1720777635,878:  -6092  64  76
1720777635,878: -10637  64  76
1720777635,878:  -2928  64  76
1720777635,878:   6612  64  76
1720777635,878:   5425  64  76
1720777635,878:  -4576  64  76
1720777635,878:  -9476  64  76
1720777635,878:  -2218  64  76
1720777635,878:   7866  64  76
1720777635,878:   7489  64  76
1720777635,878:  -2839  64  76
1720777635,878:  -9245  64  76
1720777635,878:  -3306  64  76
1720777635,878:   6802  64  76
1720777635,878:   7545  64  76
1720777635,910:  -1927  64  76
1720777635,910:  -8524  64  76
1720777635,910:  -2887  64  76
1720777635,910:   7880  64  76
1720777635,910:   9861  64  76
1720777635,910:    593  64  76
1720777635,910:  -7471  64  76
1720777635,910:  -3699  64  76
1720777635,910:   6651  64  76
1720777635,910:   9894  64  76
1720777635,910:   2141  64  76
1720777635,910:  -5622  64  76
1720777635,910:  -2519  64  76
1720777635,910:   7305  64  76
1720777635,910:  10559  64  76
1720777635,910:   2529  64  76
1720777635,910:  -6327  64  76
1720777635,910:  -4280  64  76
1720777635,910:   5922  64  76
1720777635,910:  11022  64  76
1720777635,910:   4805  64  76
1720777635,910:  -3819  64  76
1720777635,910:  -2938  64  76
1720777635,941:   6108  64  76
1720777635,941:  10889  64  76
1720777635,941:   4617  64  76
1720777635,941:  -4580  64  76
1720777635,941:  -4369  64  76
1720777635,941:   5070  64  76
1720777635,941:  11522  64  76
1720777635,941:   6941  64  76
1720777635,941:  -2055  64  76
1720777635,941:  -3142  64  76
1720777635,941:   4893  64  76
1720777635,941:  10842  64  76
1720777635,941:   6277  64  76
1720777635,941:  -3066  64  76
1720777635,941:  -4683  64  76
1720777635,972:   3717  64  76
1720777635,972:  11302  64  76
1720777635,972:   8533  64  76
1720777635,972:   -344  64  76
1720777635,972:  -3054  64  76
1720777635,972:   3947  64  76
1720777635,972:  10859  64  76
1720777635,972:   7895  64  76
1720777635,972:  -1575  64  76
1720777635,972:  -5100  64  76
1720777635,972:   2009  64  76
1720777635,972:  10472  64  76
1720777635,972:   9426  64  76
1720777635,972:    701  64  76
1720777635,972:  -3607  64  76
1720777636,003:   2453  64  76
1720777636,003:  10635  64  76
1720777636,003:   9719  64  76
1720777636,003:    424  64  76
1720777636,003:  -5109  64  76
1720777636,003:    389  64  76
1720777636,003:   9613  64  76
1720777636,003:  10508  64  76
1720777636,003:   2162  64  76
1720777636,003:  -3910  64  76
1720777636,003:    717  64  76
1720777636,003:   9880  64  76
1720777636,003:  11236  64  76
1720777636,003:   2569  64  76
1720777636,003:  -4866  64  76
1720777636,034:  -1324  64  76
1720777636,034:   8385  64  76
1720777636,034:  11448  64  76
1720777636,034:   3982  64  76
1720777636,034:  -3745  64  76
1720777636,034:  -1044  64  76
1720777636,034:   8623  64  76
1720777636,034:  12434  64  76
1720777636,034:   5116  64  76
1720777636,034:  -3810  64  76
1720777636,034:  -2638  64  76
1720777636,034:   6825  64  76
1720777636,034:  11898  64  76
1720777636,034:   5881  64  76
1720777636,034:  -3001  64  76
1720777636,065:  -2544  64  76
1720777636,065:   6801  64  76
1720777636,065:  12669  64  76
1720777636,065:   7165  64  76
1720777636,065:  -2528  64  76
1720777636,065:  -3565  64  76
1720777636,065:   5273  64  76
1720777636,065:  12167  64  76
1720777636,065:   8041  64  76
1720777636,065:  -1388  64  76
1720777636,065:  -3191  64  76
1720777636,065:   5158  64  76
1720777636,065:  12489  64  76
1720777636,065:   8869  64  76
1720777636,065:  -1141  64  76
1720777636,095:  -4291  64  76
1720777636,095:   3496  64  76
1720777636,095:  11865  64  76
1720777636,095:   9910  64  76
1720777636,095:    594  64  76
1720777636,095:  -3200  64  76
1720777636,095:   3788  64  76
1720777636,095:  12170  64  76
1720777636,095:  10598  64  76
1720777636,095:    868  64  76
1720777636,095:  -4164  64  76
1720777636,095:   2047  64  76
1720777636,095:  11119  64  76
1720777636,095:  11099  64  76
1720777636,095:   2296  64  76
1720777636,127:  -3132  64  76
1720777636,127:   2256  64  76
1720777636,127:  11093  64  76
1720777636,127:  11285  64  76
1720777636,127:   2132  64  76
1720777636,127:  -4355  64  76
1720777636,127:    369  64  76
1720777636,127:   9971  64  76
1720777636,127:  11852  64  76
1720777636,127:   3809  64  76
1720777636,127:  -3036  64  76
1720777636,127:    705  64  76
1720777636,127:   9915  64  76
1720777636,127:  12059  64  76
1720777636,127:   3864  64  76
1720777636,159:  -3983  64  76
1720777636,159:  -1139  64  76
1720777636,159:   8514  64  76
1720777636,159:  12260  64  76
1720777636,159:   5392  64  76
1720777636,159:  -2547  64  76
1720777636,159:   -631  64  76
1720777636,159:   8521  64  76
1720777636,159:  12453  64  76
1720777636,159:   5467  64  76
1720777636,159:  -3497  64  76
1720777636,159:  -2655  64  76
1720777636,159:   6782  64  76
1720777636,159:  12433  64  76
1720777636,159:   7143  64  76
1720777636,190:  -1602  64  76
1720777636,190:  -1755  64  76
1720777636,190:   6843  64  76
1720777636,190:  12470  64  76
1720777636,190:   7222  64  76
1720777636,190:  -2278  64  76
1720777636,190:  -3511  64  76
1720777636,190:   5013  64  76
1720777636,190:  11967  64  76
1720777636,190:   8319  64  76
1720777636,190:   -731  64  76
1720777636,190:  -2708  64  76
1720777636,190:   5099  64  76
1720777636,190:  12116  64  76
1720777636,190:   8700  64  76
1720777636,190:   -945  64  76
1720777636,190:  -4080  64  76
1720777636,190:   3324  64  76
1720777636,190:  11379  64  76
1720777636,190:   9556  64  76
1720777636,190:    600  64  76
1720777636,222:  -3149  64  76
1720777636,222:   3403  64  76
1720777636,222:  11277  64  76
1720777636,222:   9633  64  76
1720777636,222:    227  64  76
1720777636,222:  -4548  64  76
1720777636,222:   1577  64  76
1720777636,222:  10450  64  76
1720777636,222:  10506  64  76
1720777636,222:   2021  64  76
1720777636,222:  -3286  64  76
1720777636,222:   1809  64  76
1720777636,222:  10266  64  76
1720777636,254:  10471  64  76
1720777636,254:   1708  64  76
1720777636,254:  -4526  64  76
1720777636,254:    -11  64  76
1720777636,254:   9190  64  76
1720777636,254:  11014  64  76
1720777636,254:   3326  64  76
1720777636,254:  -3265  64  76
1720777636,254:    229  64  76
1720777636,254:   8931  64  76
1720777636,254:  10908  64  76
1720777636,254:   3054  64  76
1720777636,254:  -4434  64  76
1720777636,254:  -1665  64  76
1720777636,254:   7645  64  76
1720777636,285:  11339  64  76
1720777636,285:   4870  64  76
1720777636,285:  -2727  64  76
1720777636,285:  -1028  64  76
1720777636,285:   7528  64  76
1720777636,285:  11200  64  76
1720777636,285:   4614  64  76
1720777636,285:  -3811  64  76
1720777636,285:  -2946  64  76
1720777636,285:   5999  64  76
1720777636,285:  11295  64  76
1720777636,285:   6231  64  76
1720777636,285:  -2046  64  76
1720777636,285:  -2123  64  76
1720777636,285:   6075  64  76
1720777636,285:  11371  64  76
1720777636,285:   6311  64  76
1720777636,285:  -2754  64  76
1720777636,285:  -3873  64  76
1720777636,285:   4313  64  76
1720777636,285:  10935  64  76
1720777636,285:   7376  64  76
1720777636,285:  -1320  64  76
1720777636,317:  -3141  64  76
1720777636,317:   4483  64  76
1720777636,317:  11265  64  76
1720777636,317:   7854  64  76
1720777636,317:  -1668  64  76
1720777636,317:  -4824  64  76
1720777636,317:   2418  64  76
1720777636,317:  10409  64  76
1720777636,317:   8712  64  76
1720777636,317:   -111  64  76
1720777636,317:  -3879  64  76
1720777636,317:   2654  64  76
1720777636,317:  10707  64  76
1720777636,317:   9345  64  76
1720777636,317:    -13  64  76
1720777636,348:  -5086  64  76
1720777636,348:    713  64  76
1720777636,348:   9538  64  76
1720777636,348:   9719  64  76
1720777636,348:   1187  64  76
1720777636,348:  -4358  64  76
1720777636,348:    734  64  76
1720777636,379:   9649  64  76
1720777636,379:  10410  64  76
1720777636,379:   1706  64  76
1720777636,379:  -5017  64  76
1720777636,379:   -915  64  76
1720777636,379:   8447  64  76
1720777636,379:  10728  64  76
1720777636,379:   3141  64  76
1720777636,379:  -3822  64  76
1720777636,379:   -549  64  76
1720777636,379:   8553  64  76
1720777636,379:  11199  64  76
1720777636,379:   3502  64  76
1720777636,379:  -4549  64  76
1720777636,379:  -2373  64  76
1720777636,379:   6975  64  76
1720777636,379:  11118  64  76
1720777636,379:   4762  64  76
1720777636,379:  -3281  64  76
1720777636,379:  -1912  64  76
1720777636,379:   7080  64  76
1720777636,379:  11634  64  76
1720777636,379:   5435  64  76
1720777636,409:  -3496  64  76
1720777636,409:  -3352  64  76
1720777636,409:   5519  64  76
1720777636,409:  11321  64  76
1720777636,409:   6513  64  76
1720777636,409:  -2209  64  76
1720777636,409:  -2850  64  76
1720777636,409:   5493  64  76
1720777636,409:  11563  64  76
1720777636,409:   6991  64  76
1720777636,409:  -2467  64  76
1720777636,409:  -4311  64  76
1720777636,409:   3807  64  76
1720777636,409:  11151  64  76
1720777636,409:   8203  64  76
1720777636,441:   -787  64  76
1720777636,441:  -3474  64  76
1720777636,441:   3785  64  76
1720777636,441:  11146  64  76
1720777636,441:   8561  64  76
1720777636,441:   -846  64  76
1720777636,441:  -4627  64  76
1720777636,441:   2138  64  76
1720777636,441:  10422  64  76
1720777636,441:   9398  64  76
1720777636,441:    735  64  76
1720777636,441:  -3620  64  76
1720777636,441:   2309  64  76
1720777636,441:  10460  64  76
1720777636,441:   9719  64  76
1720777636,473:    685  94  82
1720777636,473:  -4754  94  82
1720777636,473:    547  94  82
1720777636,473:   9502  94  82
1720777636,473:  10398  94  82
1720777636,473:   2364  94  82
1720777636,473:  -3485  94  82
1720777636,505:    887  94  82
1720777636,505:   9509  94  82
1720777636,505:  10666  94  82
1720777636,505:   2427  94  82
1720777636,505:  -4433  94  82
1720777636,505:   -887  94  82
1720777636,505:   8271  94  82
1720777636,505:  11034  94  82
1720777636,505:   4042  94  82
1720777636,505:  -3018  94  82
1720777636,505:   -529  94  82
1720777636,505:   7918  94  82
1720777636,505:  10687  94  82
1720777636,505:   3658  94  82
1720777636,505:  -3941  94  82
1720777636,505:  -1870  94  82
1720777636,505:   7192  94  82
1720777636,505:  11324  94  82
1720777636,505:   5227  94  82
1720777636,505:  -2588  94  82
1720777636,505:  -1116  94  82
1720777636,505:   7977  94  82
1720777636,505:  12557  94  82
1720777636,505:   6013  94  82
1720777636,505:  -3659  94  82
1720777636,505:  -4112  94  82
1720777636,505:   4889  94  82
1720777636,505:  11350  94  82
1720777636,505:   6928  94  82
1720777636,505:  -2067  94  82
1720777636,537:  -3095  94  82
1720777636,537:   5495  94  82
1720777636,537:  12291  94  82
1720777636,537:   8019  94  82
1720777636,537:  -2014  94  82
1720777636,537:  -4653  94  82
1720777636,537:   3391  94  82
1720777636,537:  11314  94  82
1720777636,568:   8664  94  82
1720777636,568:   -786  94  82
1720777636,568:  -3967  94  82
1720777636,568:   3699  94  82
1720777636,568:  12100  94  82
1720777636,568:   9956  94  82
1720777636,568:   -244  94  82
1720777636,568:  -5408  94  82
1720777636,568:    684  94  82
1720777636,568:   9338  94  82
1720777636,568:   8674  94  82
1720777636,568:   -564  94  82
1720777636,568:  -5913  94  82
1720777636,568:     52  94  82
1720777636,568:   9779  94  82
1720777636,568:  10921  94  82
1720777636,568:   2549  94  82
1720777636,568:  -3190  94  82
1720777636,568:   2802  94  82
1720777636,568:  14599  94  82
1720777636,568:  19030  94  82
1720777636,568:  12509  94  82
1720777636,599:   5428  94  82
1720777636,599:   8149  94  82
1720777636,599:  17374  94  82
1720777636,599:  21149  94  82
1720777636,599:  14730  94  82
1720777636,599:   6906  94  82
1720777636,599:   7738  94  82
1720777636,599:  14831  94  82
1720777636,630:  17000  94  82
1720777636,630:   9663  94  82
1720777636,630:   1391  94  82
1720777636,630:   2218  94  82
1720777636,630:   9375  94  82
1720777636,630:  10892  94  82
1720777636,630:   1773  94  82
1720777636,630:  -8418  94  82
1720777636,630:  -7775  94  82
1720777636,630:   1897  94  82
1720777636,630:   7474  94  82
1720777636,630:   1770  94  82
1720777636,630:  -6994  94  82
1720777636,630:  -6405  94  82
1720777636,630:   3149  94  82
1720777636,630:   9001  94  82
1720777636,630:   3161  94  82
1720777636,630:  -6698  94  82
1720777636,630:  -7403  94  82
1720777636,630:   1831  94  82
1720777636,630:   8568  94  82
1720777636,630:   3821  94  82
1720777636,661:  -5924  94  82
1720777636,661:  -7229  94  82
1720777636,661:   2010  94  82
1720777636,661:   9805  94  82
1720777636,661:   6000  94  82
1720777636,661:  -4301  94  82
1720777636,661:  -7315  94  82
1720777636,661:    848  94  82
1720777636,661:   9266  94  82
1720777636,661:   6928  94  82
1720777636,661:  -2660  94  82
1720777636,661:  -6117  94  82
1720777636,661:   1578  94  82
1720777636,661:  10317  94  82
1720777636,661:   8477  94  82
1720777636,694:  -1687  94  82
1720777636,694:  -6697  94  82
1720777636,694:     14  94  82
1720777636,694:   9473  94  82
1720777636,694:   9309  94  82
1720777636,694:    114  94  82
1720777636,694:  -5319  94  82
1720777636,694:    644  94  82
1720777636,694:  10111  94  82
1720777636,694:  10403  94  82
1720777636,694:    842  94  82
1720777636,694:  -5973  94  82
1720777636,694:  -1063  94  82
1720777636,694:   8993  94  82
1720777636,694:  11030  94  82
1720777636,725:   2690  94  82
1720777636,725:  -4461  94  82
1720777636,725:   -577  94  82
1720777636,725:   9067  94  82
1720777636,725:  11398  94  82
1720777636,725:   2923  94  82
1720777636,725:  -5275  94  82
1720777636,725:  -2321  94  82
1720777636,725:   7860  94  82
1720777636,725:  11956  94  82
1720777636,725:   4881  94  82
1720777636,725:  -3495  94  82
1720777636,725:  -1627  94  82
1720777636,725:   7963  94  82
1720777636,725:  12296  94  82
1720777636,757:   5220  94  82
1720777636,757:  -4130  94  82
1720777636,757:  -3400  94  82
1720777636,757:   6357  94  82
1720777636,757:  12268  94  82
1720777636,757:   6744  94  82
1720777636,757:  -2478  94  82
1720777636,757:  -2678  94  82
1720777636,757:   6487  94  82
1720777636,757:  12656  94  82
1720777636,757:   7268  94  82
1720777636,757:  -2880  94  82
1720777636,757:  -4440  94  82
1720777636,757:   4536  94  82
1720777636,757:  12175  94  82
1720777636,789:   8611  94  82
1720777636,789:   -993  94  82
1720777636,789:  -3346  94  82
1720777636,789:   4831  94  82
1720777636,789:  12476  94  82
1720777636,789:   9054  94  82
1720777636,789:  -1332  94  82
1720777636,789:  -5053  94  82
1720777636,789:   2687  94  82
1720777636,789:  11565  94  82
1720777636,789:   9965  94  82
1720777636,789:    328  94  82
1720777636,789:  -4064  94  82
1720777636,789:   2861  94  82
1720777636,789:  11799  94  82
1720777636,789:  10640  94  82
1720777636,789:    576  94  82
1720777636,789:  -5144  94  82
1720777636,789:    956  94  82
1720777636,789:  10665  94  82
1720777636,789:  11210  94  82
1720777636,789:   2156  94  82
1720777636,789:  -3973  94  82
1720777636,821:   1295  94  82
1720777636,821:  10867  94  82
1720777636,821:  11765  94  82
1720777636,821:   2385  94  82
1720777636,821:  -4988  94  82
1720777636,821:   -651  94  82
1720777636,821:   9563  94  82
1720777636,821:  12243  94  82
1720777636,821:   4138  94  82
1720777636,821:  -3533  94  82
1720777636,821:   -253  94  82
1720777636,821:   9504  94  82
1720777636,821:  12505  94  82
1720777636,821:   4385  94  82
1720777636,821:  -4246  94  82
1720777636,852:  -1972  94  82
1720777636,852:   8104  94  82
1720777636,852:  12711  94  82
1720777636,852:   6013  94  82
1720777636,852:  -2644  94  82
1720777636,852:  -1320  94  82
1720777636,852:   8222  94  82
1720777636,852:  13062  94  82
1720777636,852:   6341  94  82
1720777636,852:  -3345  94  82
1720777636,852:  -3249  94  82
1720777636,852:   6411  94  82
1720777636,852:  12920  94  82
1720777636,852:   7939  94  82
1720777636,852:  -1480  94  82
1720777636,883:  -2342  94  82
1720777636,883:   6574  94  82
1720777636,883:  13215  94  82
1720777636,883:   8378  94  82
1720777636,883:  -1893  94  82
1720777636,883:  -4103  94  82
1720777636,883:   4515  94  82
1720777636,883:  12480  94  82
1720777636,883:   9391  94  82
1720777636,883:   -309  94  82
1720777636,883:  -3244  94  82
1720777636,883:   4662  94  82
1720777636,883:  12756  94  82
1720777636,883:   9980  94  82
1720777636,883:   -339  94  82
1720777636,914:  -4602  94  82
1720777636,914:   2717  94  82
1720777636,914:  11812  94  82
1720777636,914:  10721  94  82
1720777636,914:   1176  94  82
1720777636,914:  -3672  94  82
1720777636,914:   2858  94  82
1720777636,914:  11950  94  82
1720777636,914:  11223  94  82
1720777636,914:   1235  94  82
1720777636,914:  -4888  94  82
1720777636,914:    888  94  82
1720777636,914:  10828  94  82
1720777636,914:  11878  94  82
1720777636,914:   2926  94  82
1720777636,946:  -3689  94  82
1720777636,946:   1097  94  82
1720777636,946:  10784  94  82
1720777636,946:  12194  94  82
1720777636,946:   3010  94  82
1720777636,946:  -4768  94  82
1720777636,946:   -919  94  82
1720777636,977:   9344  94  82
1720777636,977:  12507  94  82
1720777636,977:   4634  94  82
1720777636,977:  -3384  94  82
1720777636,977:   -540  94  82
1720777636,977:   9312  94  82
1720777636,977:  12823  94  82
1720777636,977:   4913  94  82
1720777636,977:  -4166  94  82
1720777636,977:  -2489  94  82
1720777636,977:   7569  94  82
1720777636,977:  12728  94  82
1720777636,977:   6439  94  82
1720777636,977:  -2448  94  82
1720777636,977:  -1643  94  82
1720777636,977:   7797  94  82
1720777636,977:  13070  94  82
1720777636,977:   6742  94  82
1720777636,977:  -3098  94  82
1720777636,977:  -3496  94  82
1720777636,977:   5920  94  82
1720777636,977:  12630  94  82
1720777636,977:   7895  94  82
1720777637,009:  -1646  94  82
1720777637,009:  -2865  94  82
1720777637,009:   5959  94  82
1720777637,009:  12939  94  82
1720777637,009:   8482  94  82
1720777637,009:  -1810  94  82
1720777637,009:  -4370  94  82
1720777637,009:   4062  94  82
1720777637,009:  12265  94  82
1720777637,009:   9546  94  82
1720777637,009:   -119  94  82
1720777637,009:  -3393  94  82
1720777637,009:   4232  94  82
1720777637,009:  12430  94  82
1720777637,009:   9941  94  82
1720777637,009:   -353  94  82
1720777637,009:  -4913  94  82
1720777637,009:   2212  94  82
1720777637,009:  11542  94  82
1720777637,009:  10879  94  82
1720777637,009:   1419  94  82
1720777637,009:  -3813  94  82
1720777637,041:   2350 104  90
1720777637,041:  11554 104  90
1720777637,041:  11252 104  90
1720777637,041:   1420 104  90
1720777637,041:  -5047 104  90
1720777637,041:    329 104  90
1720777637,041:  10335 104  90
1720777637,041:  11838 104  90
1720777637,041:   3146 104  90
1720777637,041:  -3715 104  90
1720777637,041:    696 104  90
1720777637,041:  10415 104  90
1720777637,041:  12239 104  90
1720777637,041:   3297 104  90
1720777637,041:  -4763 104  90
1720777637,071:  -1369 104  90
1720777637,071:   8855 104  90
1720777637,071:  12445 104  90
1720777637,071:   4933 104  90
1720777637,071:  -3210 104  90
1720777637,071:   -741 104  90
1720777637,071:   9022 104  90
1720777637,071:  12842 104  90
1720777637,071:   5206 104  90
1720777637,071:  -4017 104  90
1720777637,071:  -2694 104  90
1720777637,071:   7285 104  90
1720777637,071:  12722 104  90
1720777637,071:   6643 104  90
1720777637,071:  -2450 104  90
1720777637,101:  -2019 104  90
1720777637,101:   7405 104  90
1720777637,101:  13105 104  90
1720777637,101:   7156 104  90
1720777637,101:  -2815 104  90
1720777637,101:  -3660 104  90
1720777637,101:   5596 104  90
1720777637,101:  12664 104  90
1720777637,101:   8384 104  90
1720777637,101:  -1151 104  90
1720777637,101:  -2791 104  90
1720777637,101:   5706 104  90
1720777637,101:  12778 104  90
1720777637,101:   8589 104  90
1720777637,101:  -1711 104  90
1720777637,133:  -4569 104  90
1720777637,133:   3697 104  90
1720777637,133:  12117 104  90
1720777637,133:   9729 104  90
1720777637,133:     65 104  90
1720777637,133:  -3560 104  90
1720777637,133:   3830 104  90
1720777637,133:  12231 104  90
1720777637,133:  10145 104  90
1720777637,133:    -52 104  90
1720777637,133:  -4940 104  90
1720777637,133:   1853 104  90
1720777637,133:  11241 104  90
1720777637,133:  10918 104  90
1720777637,133:   1624 104  90
1720777637,164:  -3809 104  90
1720777637,164:   2104 104  90
1720777637,164:  11376 104  90
1720777637,164:  11381 104  90
1720777637,164:   1673 104  90
1720777637,164:  -5042 104  90
1720777637,164:     31 104  90
1720777637,164:  10087 104  90
1720777637,164:  11953 104  90
1720777637,164:   3510 104  90
1720777637,164:  -3503 104  90
1720777637,164:    582 104  90
1720777637,164:  10215 104  90
1720777637,164:  12281 104  90
1720777637,164:   3576 104  90
1720777637,195:  -4555 104  90
1720777637,195:  -1406 104  90
1720777637,195:   8744 104  90
1720777637,195:  12515 104  90
1720777637,195:   5156 104  90
1720777637,195:  -3133 104  90
1720777637,195:   -957 104  90
1720777637,195:   8752 104  90
1720777637,195:  12865 104  90
1720777637,195:   5547 104  90
1720777637,195:  -3702 104  90
1720777637,195:  -2676 104  90
1720777637,195:   7126 104  90
1720777637,195:  12708 104  90
1720777637,195:   6862 104  90
1720777637,227:  -2265 104  90
1720777637,227:  -2127 104  90
1720777637,227:   7086 104  90
1720777637,227:  12868 104  90
1720777637,227:   7120 104  90
1720777637,227:  -2849 104  90
1720777637,227:  -3882 104  90
1720777637,227:   5305 104  90
1720777637,227:  12572 104  90
1720777637,227:   8529 104  90
1720777637,227:  -1050 104  90
1720777637,227:  -2968 104  90
1720777637,227:   5399 104  90
1720777637,227:  12697 104  90
1720777637,227:   8848 104  90
1720777637,227:  -1398 104  90
1720777637,227:  -4522 104  90
1720777637,227:   3519 104  90
1720777637,227:  12020 104  90
1720777637,227:   9862 104  90
1720777637,258:    219 104  90
1720777637,258:  -3646 104  90
1720777637,258:   3577 104  90
1720777637,258:  12112 104  90
1720777637,258:  10279 104  90
1720777637,258:     83 104  90
1720777637,258:  -5099 104  90
1720777637,258:   1493 104  90
1720777637,289:  11088 104  90
1720777637,289:  11186 104  90
1720777637,289:   2058 104  90
1720777637,289:  -3628 104  90
1720777637,289:   1971 104  90
1720777637,289:  11270 104  90
1720777637,289:  11598 104  90
1720777637,289:   2085 104  90
1720777637,289:  -4813 104  90
1720777637,289:    -61 104  90
1720777637,289:   9910 104  90
1720777637,289:  11954 104  90
1720777637,289:   3617 104  90
1720777637,289:  -3577 104  90
1720777637,289:    273 104  90
1720777637,289:   9968 104  90
1720777637,289:  12371 104  90
1720777637,289:   3888 104  90
1720777637,289:  -4415 104  90
1720777637,289:  -1626 104  90
1720777637,289:   8403 104  90
1720777637,289:  12397 104  90
1720777637,321:   5289 104  90
1720777637,321:  -3047 104  90
1720777637,321:  -1127 104  90
1720777637,321:   8466 104  90
1720777637,321:  12727 104  90
1720777637,321:   5568 104  90
1720777637,321:  -3780 104  90
1720777637,321:  -2978 104  90
1720777637,321:   6794 104  90
1720777637,321:  12631 104  90
1720777637,321:   7044 104  90
1720777637,321:  -2118 104  90
1720777637,321:  -2233 104  90
1720777637,321:   6868 104  90
1720777637,321:  12848 104  90
1720777637,352:   7414 104  90
1720777637,352:  -2465 104  90
1720777637,352:  -3812 104  90
1720777637,352:   4962 104  90
1720777637,352:  12063 104  90
1720777637,352:   8067 104  90
1720777637,352:  -1625 104  90
1720777637,352:  -3999 104  90
1720777637,352:   3896 104  90
1720777637,352:  11128 104  90
1720777637,352:   7546 104  90
1720777637,352:  -2594 104  90
1720777637,352:  -5880 104  90
1720777637,352:   2527 104  90
1720777637,352:  12638 104  90
1720777637,383:  12767 104  90
1720777637,383:   4501 104  90
1720777637,383:    361 104  90
1720777637,383:   6950 104  90
1720777637,383:  16506 104  90
1720777637,383:  17617 104  90
1720777637,383:  10263 104  90
1720777637,383:   5868 104  90
1720777637,383:  11532 104  90
1720777637,383:  20548 104  90
1720777637,383:  21578 104  90
1720777637,383:  13747 104  90
1720777637,383:   7759 104  90
1720777637,383:  10995 104  90
1720777637,383:  17170 104  90
1720777637,383:  15017 104  90
1720777637,383:   3748 104  90
1720777637,383:  -4899 104  90
1720777637,383:  -2177 104  90
1720777637,383:   5948 104  90
1720777637,383:   6937 104  90
1720777637,383:  -1534 104  90
1720777637,383:  -8268 104  90
1720777637,414:  -3830 104  90
1720777637,414:   6328 104  90
1720777637,414:   8923 104  90
1720777637,414:    471 104  90
1720777637,414:  -7710 104  90
1720777637,414:  -4678 104  90
1720777637,414:   5368 104  90
1720777637,445:   8918 104  90
1720777637,445:   1168 104  90
1720777637,445:  -7458 104  90
1720777637,445:  -5248 104  90
1720777637,445:   4917 104  90
1720777637,445:   9543 104  90
1720777637,445:   2490 104  90
1720777637,445:  -6707 104  90
1720777637,445:  -5543 104  90
1720777637,445:   4551 104  90
1720777637,445:  10320 104  90
1720777637,445:   4312 104  90
1720777637,445:  -5211 104  90
1720777637,445:  -5231 104  90
1720777637,445:   4330 104  90
1720777637,476:  10739 104  90
1720777637,476:   5398 104  90
1720777637,476:  -4651 104  90
1720777637,476:  -5938 104  90
1720777637,476:   3272 104  90
1720777637,476:  10880 104  90
1720777637,476:   7114 104  90
1720777637,476:  -2564 104  90
1720777637,476:  -4738 104  90
1720777637,476:   3662 104  90
1720777637,476:  11358 104  90
1720777637,476:   7891 104  90
1720777637,476:  -2425 104  90
1720777637,476:  -5914 104  90
1720777637,476:   2012 104  90
1720777637,476:  10868 104  90
1720777637,476:   9151 104  90
1720777637,476:   -467 104  90
1720777637,476:  -4683 104  90
1720777637,476:   2355 104  90
1720777637,476:  11181 104  90
1720777637,476:   9834 104  90
1720777637,476:   -241 104  90
1720777637,508:  -5747 104  90
1720777637,508:    573 104  90
1720777637,508:  10318 104  90
1720777637,508:  10769 104  90
1720777637,508:   1683 104  90
1720777637,508:  -4375 104  90
1720777637,508:    924 104  90
1720777637,508:  10376 104  90
1720777637,508:  11106 104  90
1720777637,508:   1690 104  90
1720777637,508:  -5552 104  90
1720777637,508:  -1062 104  90
1720777637,508:   9176 104  90
1720777637,508:  11767 104  90
1720777637,508:   3592 104  90
1720777637,539:  -4031 104  90
1720777637,539:   -622 104  90
1720777637,539:   9205 104  90
1720777637,539:  12147 104  90
1720777637,539:   3893 104  90
1720777637,539:  -4816 104  90
