timestamp: ADC HeartRate4sAverage HeartRate30sAverage
1720433414,902:   -209  75  70
1720433414,902:   -238  75  70
1720433414,902:   -263  75  70
1720433414,902:   -265  75  70
1720433414,902:   -249  75  70
1720433414,902:   -239  75  70
1720433414,902:   -250  75  70
1720433414,902:   -265  75  70
1720433414,902:   -264  75  70
1720433414,902:   -253  75  70
1720433414,902:   -257  75  70
1720433414,902:   -285  75  70
1720433414,902:   -316  75  70
1720433414,902:   -324  75  70
1720433414,902:   -308  75  70
1720433414,933:   -292  75  70
1720433414,933:   -292  75  70
1720433414,933:   -296  75  70
1720433414,933:   -280  75  70
1720433414,933:   -242  75  70
1720433414,933:   -211  75  70
1720433414,933:   -205  75  70
1720433414,933:   -218  75  70
1720433414,933:   -223  75  70
1720433414,933:   -210  75  70
1720433414,933:   -194  75  70
1720433414,933:   -192  75  70
1720433414,933:   -204  75  70
1720433414,933:   -207  75  70
1720433414,933:   -190  75  70
1720433414,965:   -166  75  70
1720433414,965:   -153  75  70
1720433414,965:   -150  75  70
1720433414,965:   -144  75  70
1720433414,965:   -128  75  70
1720433414,965:   -110  75  70
1720433414,965:   -101  75  70
1720433414,965:    -97  75  70
1720433414,965:    -83  75  70
1720433414,965:    -55  75  70
1720433414,965:    -34  75  70
1720433414,965:    -36  75  70
1720433414,965:    -53  75  70
1720433414,965:    -62  75  70
1720433414,965:    -53  75  70
1720433414,965:    -42  75  70
1720433414,965:    -48  75  70
1720433414,965:    -65  75  70
1720433414,965:    -66  75  70
1720433414,965:    -39  75  70
1720433414,997:     -5  75  70
1720433414,997:      8  75  70
1720433414,997:     -5  75  70
1720433414,997:    -19  75  70
1720433414,997:    -12  75  70
1720433414,997:     12  75  70
1720433414,997:     29  75  70
1720433414,997:     20  75  70
1720433414,997:      0  75  70
1720433414,997:     -9  75  70
1720433414,997:      4  75  70
1720433414,997:     21  75  70
1720433414,997:     24  75  70
1720433414,997:      8  75  70
1720433414,997:    -11  75  70
1720433415,028:    -20  75  70
1720433415,028:    -18  75  70
1720433415,028:    -19  75  70
1720433415,028:    -26  75  70
1720433415,028:    -33  75  70
1720433415,028:    -33  75  70
1720433415,028:    -30  75  70
1720433415,028:    -34  75  70
1720433415,028:    -47  75  70
1720433415,028:    -67  75  70
1720433415,028:    -82  75  70
1720433415,028:    -90  75  70
1720433415,028:    -89  75  70
1720433415,028:    -77  75  70
1720433415,028:    -55  75  70
1720433415,058:    -31  75  70
1720433415,058:    -20  75  70
1720433415,058:    -22  75  70
1720433415,058:    -25  75  70
1720433415,058:    -15  75  70
1720433415,058:      9  75  70
1720433415,058:     34  75  70
1720433415,058:     44  75  70
1720433415,058:     40  75  70
1720433415,058:     33  75  70
1720433415,058:     31  75  70
1720433415,058:     32  75  70
1720433415,058:     32  75  70
1720433415,058:     28  75  70
1720433415,058:     21  75  70
1720433415,089:     17  75  70
1720433415,089:     20  75  70
1720433415,089:     31  75  70
1720433415,089:     45  75  70
1720433415,089:     61  75  70
1720433415,089:     78  75  70
1720433415,089:     98  75  70
1720433415,089:    119  75  70
1720433415,089:    134  75  70
1720433415,089:    136  75  70
1720433415,089:    129  75  70
1720433415,089:    124  75  70
1720433415,089:    127  75  70
1720433415,089:    133  75  70
1720433415,089:    132  75  70
1720433415,119:    121  75  70
1720433415,119:    107  75  70
1720433415,119:     96  75  70
1720433415,119:     92  75  70
1720433415,119:     90  75  70
1720433415,119:     88  75  70
1720433415,119:     87  75  70
1720433415,119:     89  75  70
1720433415,119:     93  75  70
1720433415,119:     96  75  70
1720433415,119:     94  75  70
1720433415,119:     85  75  70
1720433415,119:     70  75  70
1720433415,119:     55  75  70
1720433415,119:     49  75  70
1720433415,151:     53  75  70
1720433415,151:     61  75  70
1720433415,151:     64  75  70
1720433415,151:     62  75  70
1720433415,151:     62  75  70
1720433415,151:     69  75  70
1720433415,151:     80  75  70
1720433415,151:     83  75  70
1720433415,151:     71  75  70
1720433415,151:     44  75  70
1720433415,151:      8  75  70
1720433415,151:    -30  75  70
1720433415,151:    -59  75  70
1720433415,151:    -71  75  70
1720433415,151:    -72  75  70
1720433415,183:    -77  75  70
1720433415,183:    -97  75  70
1720433415,183:   -127  75  70
1720433415,183:   -149  75  70
1720433415,183:   -155  75  70
1720433415,183:   -157  75  70
1720433415,183:   -167  75  70
1720433415,183:   -185  75  70
1720433415,183:   -197  75  70
1720433415,183:   -194  75  70
1720433415,183:   -184  75  70
1720433415,183:   -177  75  70
1720433415,183:   -176  75  70
1720433415,183:   -175  75  70
1720433415,183:   -174  75  70
1720433415,214:   -178  75  70
1720433415,214:   -188  75  70
1720433415,214:   -195  75  70
1720433415,214:   -191  75  70
1720433415,214:   -181  75  70
1720433415,214:   -176  75  70
1720433415,214:   -175  75  70
1720433415,214:   -166  75  70
1720433415,214:   -139  75  70
1720433415,214:   -105  75  70
1720433415,214:    -87  75  70
1720433415,214:    -90  75  70
1720433415,214:    -97  75  70
1720433415,214:    -85  75  70
1720433415,214:    -57  75  70
1720433415,245:    -32  75  70
1720433415,245:    -30  75  70
1720433415,245:    -46  75  70
1720433415,245:    -56  75  70
1720433415,245:    -49  75  70
1720433415,245:    -38  75  70
1720433415,245:    -42  75  70
1720433415,245:    -56  75  70
1720433415,245:    -54  75  70
1720433415,245:    -17  75  70
1720433415,245:     46  75  70
1720433415,245:    105  75  70
1720433415,245:    140  75  70
1720433415,245:    164  75  70
1720433415,245:    199  75  70
1720433415,245:    248  75  70
1720433415,245:    288  75  70
1720433415,245:    301  75  70
1720433415,245:    291  75  70
1720433415,245:    277  75  70
1720433415,245:    270  75  70
1720433415,245:    264  75  70
1720433415,277:    245  75  70
1720433415,277:    214  75  70
1720433415,277:    188  75  70
1720433415,277:    176  75  70
1720433415,277:    166  75  70
1720433415,277:    140  75  70
1720433415,277:     93  75  70
1720433415,277:     45  75  70
1720433415,277:     15  75  70
1720433415,277:      5  75  70
1720433415,277:    -11  75  70
1720433415,277:    -51  75  70
1720433415,277:   -102  75  70
1720433415,277:   -134  75  70
1720433415,277:   -133  75  70
1720433415,308:   -114  75  70
1720433415,308:   -105  75  70
1720433415,308:   -112  75  70
1720433415,308:   -119  75  70
1720433415,308:   -109  75  70
1720433415,308:    -94  75  70
1720433415,308:    -99  75  70
1720433415,308:   -131  75  70
1720433415,308:   -169  75  70
1720433415,308:   -193  75  70
1720433415,308:   -203  75  70
1720433415,308:   -218  75  70
1720433415,308:   -242  75  70
1720433415,308:   -257  75  70
1720433415,308:   -243  75  70
1720433415,339:   -211  75  70
1720433415,339:   -190  75  70
1720433415,339:   -196  75  70
1720433415,339:   -207  75  70
1720433415,339:   -197  75  70
1720433415,339:   -167  75  70
1720433415,339:   -145  75  70
1720433415,339:   -153  75  70
1720433415,339:   -176  75  70
1720433415,339:   -180  75  70
1720433415,339:   -157  75  70
1720433415,339:   -134  75  70
1720433415,339:   -136  75  70
1720433415,339:   -150  75  70
1720433415,339:   -144  75  70
1720433415,370:   -108  75  70
1720433415,370:    -69  75  70
1720433415,370:    -57  75  70
1720433415,370:    -62  75  70
1720433415,370:    -40  75  70
1720433415,370:     28  75  70
1720433415,370:     97  75  70
1720433415,370:    102  75  70
1720433415,370:     43  75  70
1720433415,370:     -9  75  70
1720433415,370:      9  75  70
1720433415,370:     63  75  70
1720433415,370:     57  75  70
1720433415,370:    -44  75  70
1720433415,370:   -158  75  70
1720433415,402:   -150  75  70
1720433415,402:     34  75  70
1720433415,402:    352  75  70
1720433415,402:    788  75  70
1720433415,402:   1440  75  70
1720433415,402:   2439  75  70
1720433415,402:   3750  75  70
1720433415,402:   5113  75  70
1720433415,402:   6217  75  70
1720433415,402:   6967  75  70
1720433415,402:   7516  75  70
1720433415,402:   8007  75  70
1720433415,402:   8293  75  70
1720433415,402:   7969  75  70
1720433415,402:   6759  75  70
1720433415,434:   4848  77  72
1720433415,434:   2819  77  72
1720433415,434:   1210  77  72
1720433415,434:    125  77  72
1720433415,434:   -711  77  72
1720433415,434:  -1557  77  72
1720433415,434:  -2353  77  72
1720433415,434:  -2795  77  72
1720433415,434:  -2673  77  72
1720433415,434:  -2096  77  72
1720433415,434:  -1397  77  72
1720433415,434:   -878  77  72
1720433415,434:   -642  77  72
1720433415,434:   -610  77  72
1720433415,434:   -656  77  72
1720433415,434:   -696  77  72
1720433415,434:   -709  77  72
1720433415,434:   -718  77  72
1720433415,434:   -749  77  72
1720433415,434:   -805  77  72
1720433415,434:   -863  77  72
1720433415,434:   -892  77  72
1720433415,434:   -886  77  72
1720433415,466:   -861  77  72
1720433415,466:   -826  77  72
1720433415,466:   -778  77  72
1720433415,466:   -730  77  72
1720433415,466:   -713  77  72
1720433415,466:   -750  77  72
1720433415,466:   -817  77  72
1720433415,466:   -858  77  72
1720433415,466:   -835  77  72
1720433415,466:   -763  77  72
1720433415,466:   -685  77  72
1720433415,466:   -630  77  72
1720433415,466:   -593  77  72
1720433415,466:   -566  77  72
1720433415,466:   -557  77  72
1720433415,497:   -580  77  72
1720433415,497:   -622  77  72
1720433415,497:   -642  77  72
1720433415,497:   -615  77  72
1720433415,497:   -556  77  72
1720433415,497:   -502  77  72
1720433415,497:   -477  77  72
1720433415,497:   -469  77  72
1720433415,497:   -457  77  72
1720433415,497:   -443  77  72
1720433415,497:   -441  77  72
1720433415,497:   -449  77  72
1720433415,497:   -447  77  72
1720433415,497:   -417  77  72
1720433415,497:   -366  77  72
1720433415,529:   -319  77  72
1720433415,529:   -295  77  72
1720433415,529:   -285  77  72
1720433415,529:   -273  77  72
1720433415,529:   -253  77  72
1720433415,529:   -238  77  72
1720433415,529:   -235  77  72
1720433415,529:   -240  77  72
1720433415,529:   -239  77  72
1720433415,529:   -228  77  72
1720433415,529:   -215  77  72
1720433415,529:   -210  77  72
1720433415,529:   -208  77  72
1720433415,529:   -203  77  72
1720433415,529:   -198  77  72
1720433415,560:   -205  77  72
1720433415,560:   -223  77  72
1720433415,560:   -236  77  72
1720433415,560:   -226  77  72
1720433415,560:   -195  77  72
1720433415,560:   -164  77  72
1720433415,560:   -152  77  72
1720433415,560:   -149  77  72
1720433415,560:   -130  77  72
1720433415,560:    -87  77  72
1720433415,560:    -44  77  72
1720433415,560:    -27  77  72
1720433415,560:    -39  77  72
1720433415,560:    -56  77  72
1720433415,560:    -54  77  72
1720433415,592:    -38  77  72
1720433415,592:    -32  77  72
1720433415,592:    -50  77  72
1720433415,592:    -74  77  72
1720433415,592:    -78  77  72
1720433415,592:    -58  77  72
1720433415,592:    -32  77  72
1720433415,592:    -20  77  72
1720433415,592:    -24  77  72
1720433415,592:    -24  77  72
1720433415,592:     -3  77  72
1720433415,592:     32  77  72
1720433415,592:     59  77  72
1720433415,592:     69  77  72
1720433415,592:     67  77  72
1720433415,624:     63  77  72
1720433415,624:     58  77  72
1720433415,624:     44  77  72
1720433415,624:     23  77  72
1720433415,624:      6  77  72
1720433415,624:     -1  77  72
1720433415,624:     -5  77  72
1720433415,624:    -13  77  72
1720433415,624:    -19  77  72
1720433415,624:    -11  77  72
1720433415,624:      8  77  72
1720433415,624:     19  77  72
1720433415,624:      8  77  72
1720433415,624:    -12  77  72
1720433415,624:    -26  77  72
1720433415,655:    -34  77  72
1720433415,655:    -54  77  72
1720433415,655:    -91  77  72
1720433415,655:   -122  77  72
1720433415,655:   -120  77  72
1720433415,655:    -98  77  72
1720433415,655:    -97  77  72
1720433415,655:   -134  77  72
1720433415,655:   -186  77  72
1720433415,655:   -214  77  72
1720433415,655:   -213  77  72
1720433415,655:   -214  77  72
1720433415,655:   -243  77  72
1720433415,655:   -287  77  72
1720433415,655:   -314  77  72
1720433415,655:   -314  77  72
1720433415,655:   -310  77  72
1720433415,655:   -323  77  72
1720433415,655:   -344  77  72
1720433415,655:   -350  77  72
1720433415,655:   -336  77  72
1720433415,655:   -321  77  72
1720433415,687:   -321  77  72
1720433415,687:   -328  77  72
1720433415,687:   -321  77  72
1720433415,687:   -297  77  72
1720433415,687:   -274  77  72
1720433415,687:   -268  77  72
1720433415,687:   -273  77  72
1720433415,687:   -273  77  72
1720433415,687:   -261  77  72
1720433415,687:   -250  77  72
1720433415,687:   -252  77  72
1720433415,687:   -261  77  72
1720433415,687:   -261  77  72
1720433415,687:   -246  77  72
1720433415,687:   -234  77  72
1720433415,719:   -239  77  72
1720433415,719:   -255  77  72
1720433415,719:   -261  77  72
1720433415,719:   -243  77  72
1720433415,719:   -211  77  72
1720433415,719:   -191  77  72
1720433415,719:   -191  77  72
1720433415,719:   -195  77  72
1720433415,719:   -183  77  72
1720433415,719:   -159  77  72
1720433415,719:   -142  77  72
1720433415,719:   -146  77  72
1720433415,719:   -160  77  72
1720433415,719:   -162  77  72
1720433415,719:   -147  77  72
1720433415,751:   -127  77  72
1720433415,751:   -116  77  72
1720433415,751:   -112  77  72
1720433415,751:   -106  77  72
1720433415,751:    -92  77  72
1720433415,751:    -76  77  72
1720433415,751:    -63  77  72
1720433415,751:    -56  77  72
1720433415,751:    -59  77  72
1720433415,751:    -68  77  72
1720433415,751:    -78  77  72
1720433415,751:    -79  77  72
1720433415,751:    -69  77  72
1720433415,751:    -52  77  72
1720433415,751:    -40  77  72
1720433415,783:    -38  77  72
1720433415,783:    -40  77  72
1720433415,783:    -37  77  72
1720433415,783:    -32  77  72
1720433415,783:    -35  77  72
1720433415,783:    -50  77  72
1720433415,783:    -70  77  72
1720433415,783:    -82  77  72
1720433415,783:    -81  77  72
1720433415,783:    -79  77  72
1720433415,783:    -86  77  72
1720433415,783:   -101  77  72
1720433415,783:   -111  77  72
1720433415,783:   -107  77  72
1720433415,783:    -92  77  72
1720433415,815:    -77  77  72
1720433415,815:    -74  77  72
1720433415,815:    -78  77  72
1720433415,815:    -81  77  72
1720433415,815:    -78  77  72
1720433415,815:    -77  77  72
1720433415,815:    -84  77  72
1720433415,815:   -100  77  72
1720433415,815:   -119  77  72
1720433415,815:   -137  77  72
1720433415,815:   -151  77  72
1720433415,815:   -158  77  72
1720433415,815:   -155  77  72
1720433415,815:   -142  77  72
1720433415,815:   -130  77  72
1720433415,847:   -129  77  72
1720433415,847:   -136  77  72
1720433415,847:   -142  77  72
1720433415,847:   -141  77  72
1720433415,847:   -142  77  72
1720433415,847:   -151  77  72
1720433415,847:   -165  77  72
1720433415,847:   -171  77  72
1720433415,847:   -165  77  72
1720433415,847:   -159  77  72
1720433415,847:   -161  77  72
1720433415,847:   -167  77  72
1720433415,847:   -163  77  72
1720433415,847:   -147  77  72
1720433415,847:   -134  77  72
1720433415,878:   -138  77  72
1720433415,878:   -159  77  72
1720433415,878:   -185  77  72
1720433415,878:   -202  77  72
1720433415,878:   -214  77  72
1720433415,878:   -233  77  72
1720433415,878:   -265  77  72
1720433415,878:   -306  77  72
1720433415,878:   -346  77  72
1720433415,878:   -378  77  72
1720433415,878:   -398  77  72
1720433415,878:   -410  77  72
1720433415,878:   -420  77  72
1720433415,878:   -430  77  72
1720433415,878:   -437  77  72
1720433415,878:   -443  77  72
1720433415,878:   -446  77  72
1720433415,878:   -450  77  72
1720433415,878:   -456  77  72
1720433415,878:   -466  77  72
1720433415,878:   -477  77  72
1720433415,878:   -485  77  72
1720433415,878:   -490  77  72
1720433415,910:   -487  77  72
1720433415,910:   -478  77  72
1720433415,910:   -471  77  72
1720433415,910:   -472  77  72
1720433415,910:   -477  77  72
1720433415,910:   -479  77  72
1720433415,910:   -476  77  72
1720433415,910:   -474  77  72
1720433415,910:   -480  77  72
1720433415,910:   -492  77  72
1720433415,910:   -496  77  72
1720433415,910:   -484  77  72
1720433415,910:   -463  77  72
1720433415,910:   -450  77  72
1720433415,910:   -452  77  72
1720433415,942:   -460  77  72
1720433415,942:   -467  77  72
1720433415,942:   -473  77  72
1720433415,942:   -481  77  72
1720433415,942:   -485  77  72
1720433415,942:   -477  77  72
1720433415,942:   -457  77  72
1720433415,942:   -439  77  72
1720433415,942:   -436  77  72
1720433415,942:   -440  77  72
1720433415,942:   -433  77  72
1720433415,942:   -412  77  72
1720433415,942:   -396  77  72
1720433415,942:   -403  77  72
1720433415,942:   -429  77  72
1720433415,973:   -446  77  72
1720433415,973:   -439  77  72
1720433415,973:   -419  77  72
1720433415,973:   -408  77  72
1720433415,973:   -414  77  72
1720433415,973:   -421  77  72
1720433415,973:   -416  77  72
1720433415,973:   -401  77  72
1720433415,973:   -387  77  72
1720433415,973:   -380  77  72
1720433415,973:   -371  77  72
1720433415,973:   -352  77  72
1720433415,973:   -325  77  72
1720433415,973:   -305  77  72
1720433415,973:   -298  77  72
1720433416,005:   -299  77  72
1720433416,005:   -295  77  72
1720433416,005:   -284  77  72
1720433416,005:   -271  77  72
1720433416,005:   -264  77  72
1720433416,005:   -261  77  72
1720433416,005:   -253  77  72
1720433416,005:   -234  77  72
1720433416,005:   -211  77  72
1720433416,005:   -198  77  72
1720433416,005:   -196  77  72
1720433416,005:   -198  77  72
1720433416,037:   -192  77  72
1720433416,037:   -181  77  72
1720433416,037:   -171  77  72
1720433416,037:   -167  77  72
1720433416,037:   -160  77  72
1720433416,037:   -145  77  72
1720433416,037:   -129  77  72
1720433416,037:   -128  77  72
1720433416,037:   -140  77  72
1720433416,037:   -147  77  72
1720433416,037:   -137  77  72
1720433416,037:   -120  77  72
1720433416,037:   -117  77  72
1720433416,037:   -130  77  72
1720433416,037:   -137  77  72
1720433416,037:   -115  77  72
1720433416,037:    -77  77  72
1720433416,037:    -56  77  72
1720433416,037:    -65  77  72
1720433416,037:    -86  77  72
1720433416,037:    -95  77  72
1720433416,037:    -93  77  72
1720433416,069:    -98  77  72
1720433416,069:   -116  77  72
1720433416,069:   -131  77  72
1720433416,069:   -121  77  72
1720433416,069:    -92  77  72
1720433416,069:    -71  77  72
1720433416,069:    -66  77  72
1720433416,069:    -62  77  72
1720433416,069:    -35  77  72
1720433416,069:      6  77  72
1720433416,069:     37  77  72
1720433416,069:     42  77  72
1720433416,069:     31  77  72
1720433416,069:     26  77  72
1720433416,069:     28  77  72
1720433416,101:     17  77  72
1720433416,101:    -18  77  72
1720433416,101:    -58  77  72
1720433416,101:    -75  77  72
1720433416,101:    -67  77  72
1720433416,101:    -63  77  72
1720433416,101:    -84  77  72
1720433416,101:   -120  77  72
1720433416,101:   -135  77  72
1720433416,101:   -114  77  72
1720433416,101:    -87  77  72
1720433416,101:    -99  77  72
1720433416,101:   -154  77  72
1720433416,101:   -214  77  72
1720433416,101:   -241  77  72
1720433416,132:   -236  77  72
1720433416,132:   -236  77  72
1720433416,132:   -263  77  72
1720433416,132:   -298  77  72
1720433416,132:   -307  77  72
1720433416,132:   -288  77  72
1720433416,132:   -267  77  72
1720433416,132:   -264  77  72
1720433416,132:   -270  77  72
1720433416,132:   -263  77  72
1720433416,132:   -238  77  72
1720433416,132:   -214  77  72
1720433416,132:   -207  77  72
1720433416,132:   -212  77  72
1720433416,132:   -208  77  72
1720433416,163:   -196  77  72
1720433416,163:   -189  77  72
1720433416,163:   -199  77  72
1720433416,163:   -214  77  72
1720433416,163:   -218  77  72
1720433416,163:   -209  77  72
1720433416,163:   -203  77  72
1720433416,163:   -207  77  72
1720433416,163:   -210  77  72
1720433416,163:   -189  77  72
1720433416,163:   -144  77  72
1720433416,163:   -102  77  72
1720433416,163:    -88  77  72
1720433416,163:    -97  77  72
1720433416,163:    -96  77  72
1720433416,195:    -62  77  72
1720433416,195:     -9  77  72
1720433416,195:     31  77  72
1720433416,195:     45  77  72
1720433416,195:     62  77  72
1720433416,195:    119  77  72
1720433416,195:    207  77  72
1720433416,195:    267  77  72
1720433416,195:    255  77  72
1720433416,195:    198  77  72
1720433416,195:    165  77  72
1720433416,195:    180  77  72
1720433416,195:    177  77  72
1720433416,195:     76  77  72
1720433416,195:   -106  77  72
1720433416,195:   -243  77  72
1720433416,195:   -209  77  72
1720433416,195:     28  77  72
1720433416,195:    438  77  72
1720433416,195:   1032  77  72
1720433416,195:   1896  77  72
1720433416,195:   3087  77  72
1720433416,195:   4501  77  72
1720433416,227:   5890  77  72
1720433416,227:   7032  77  72
1720433416,227:   7879  77  72
1720433416,227:   8510  77  72
1720433416,227:   8930  77  72
1720433416,227:   8941  77  72
1720433416,227:   8257  77  72
1720433416,227:   6790  77  72
1720433416,227:   4828  77  72
1720433416,227:   2892  77  72
1720433416,227:   1364  77  72
1720433416,227:    257  77  72
1720433416,227:   -674  77  72
1720433416,227:  -1586  77  72
1720433416,227:  -2345  77  72
1720433416,258:  -2661  74  74
1720433416,258:  -2409  74  74
1720433416,258:  -1788  74  74
1720433416,258:  -1163  74  74
1720433416,258:   -796  74  74
1720433416,258:   -698  74  74
1720433416,258:   -723  74  74
1720433416,258:   -747  74  74
1720433416,258:   -758  74  74
1720433416,258:   -799  74  74
1720433416,258:   -893  74  74
1720433416,258:  -1012  74  74
1720433416,258:  -1112  74  74
1720433416,258:  -1175  74  74
1720433416,258:  -1207  74  74
1720433416,289:  -1216  74  74
1720433416,289:  -1202  74  74
1720433416,289:  -1153  74  74
1720433416,289:  -1085  74  74
1720433416,289:  -1038  74  74
1720433416,289:  -1039  74  74
1720433416,289:  -1078  74  74
1720433416,321:  -1111  74  74
1720433416,321:  -1106  74  74
1720433416,321:  -1058  74  74
1720433416,321:   -986  74  74
1720433416,321:   -908  74  74
1720433416,321:   -835  74  74
1720433416,321:   -782  74  74
1720433416,321:   -762  74  74
1720433416,321:   -773  74  74
1720433416,321:   -792  74  74
1720433416,321:   -793  74  74
1720433416,321:   -770  74  74
1720433416,321:   -735  74  74
1720433416,321:   -700  74  74
1720433416,321:   -664  74  74
1720433416,321:   -627  74  74
1720433416,321:   -599  74  74
1720433416,321:   -597  74  74
1720433416,321:   -620  74  74
1720433416,321:   -646  74  74
1720433416,321:   -649  74  74
1720433416,321:   -630  74  74
1720433416,321:   -611  74  74
1720433416,352:   -612  74  74
1720433416,352:   -627  74  74
1720433416,352:   -633  74  74
1720433416,352:   -617  74  74
1720433416,352:   -593  74  74
1720433416,352:   -586  74  74
1720433416,352:   -595  74  74
1720433416,352:   -602  74  74
1720433416,352:   -593  74  74
1720433416,352:   -575  74  74
1720433416,352:   -562  74  74
1720433416,352:   -557  74  74
1720433416,352:   -546  74  74
1720433416,352:   -519  74  74
1720433416,352:   -488  74  74
1720433416,384:   -476  74  74
1720433416,384:   -482  74  74
1720433416,384:   -485  74  74
1720433416,384:   -468  74  74
1720433416,384:   -432  74  74
1720433416,384:   -396  74  74
1720433416,384:   -371  74  74
1720433416,384:   -350  74  74
1720433416,384:   -321  74  74
1720433416,384:   -289  74  74
1720433416,384:   -263  74  74
1720433416,384:   -246  74  74
1720433416,384:   -229  74  74
1720433416,384:   -206  74  74
1720433416,384:   -184  74  74
1720433416,416:   -172  74  74
1720433416,416:   -168  74  74
1720433416,416:   -155  74  74
1720433416,416:   -117  74  74
1720433416,416:    -66  74  74
1720433416,416:    -28  74  74
1720433416,416:    -22  74  74
1720433416,416:    -31  74  74
1720433416,416:    -26  74  74
1720433416,416:      5  74  74
1720433416,416:     40  74  74
1720433416,416:     54  74  74
1720433416,416:     45  74  74
1720433416,416:     40  74  74
1720433416,416:     60  74  74
1720433416,416:     88  74  74
1720433416,416:     97  74  74
1720433416,416:     78  74  74
1720433416,416:     55  74  74
1720433416,416:     49  74  74
1720433416,416:     52  74  74
1720433416,416:     38  74  74
1720433416,447:      3  74  74
1720433416,447:    -30  74  74
1720433416,447:    -37  74  74
1720433416,447:    -23  74  74
1720433416,447:    -17  74  74
1720433416,447:    -31  74  74
1720433416,447:    -50  74  74
1720433416,447:    -55  74  74
1720433416,447:    -41  74  74
1720433416,447:    -27  74  74
1720433416,447:    -23  74  74
1720433416,447:    -27  74  74
1720433416,447:    -27  74  74
1720433416,447:    -27  74  74
1720433416,447:    -33  74  74
1720433416,479:    -47  74  74
1720433416,479:    -60  74  74
1720433416,479:    -68  74  74
1720433416,479:    -79  74  74
1720433416,479:    -99  74  74
1720433416,479:   -123  74  74
1720433416,479:   -140  74  74
1720433416,479:   -142  74  74
1720433416,511:   -142  74  74
1720433416,511:   -155  74  74
1720433416,511:   -181  74  74
1720433416,511:   -206  74  74
1720433416,511:   -217  74  74
1720433416,511:   -216  74  74
1720433416,511:   -217  74  74
1720433416,511:   -225  74  74
1720433416,511:   -232  74  74
1720433416,511:   -226  74  74
1720433416,511:   -209  74  74
1720433416,511:   -190  74  74
1720433416,511:   -181  74  74
1720433416,511:   -180  74  74
1720433416,511:   -184  74  74
1720433416,511:   -190  74  74
1720433416,511:   -196  74  74
1720433416,511:   -196  74  74
1720433416,511:   -189  74  74
1720433416,511:   -174  74  74
1720433416,511:   -162  74  74
1720433416,511:   -156  74  74
1720433416,543:   -155  74  74
1720433416,543:   -148  74  74
1720433416,543:   -133  74  74
1720433416,543:   -120  74  74
1720433416,543:   -114  74  74
1720433416,543:   -115  74  74
1720433416,543:   -116  74  74
1720433416,543:   -115  74  74
1720433416,543:   -114  74  74
1720433416,543:   -118  74  74
1720433416,543:   -122  74  74
1720433416,543:   -118  74  74
1720433416,543:   -111  74  74
1720433416,543:   -112  74  74
1720433416,543:   -127  74  74
1720433416,575:   -143  74  74
1720433416,575:   -143  74  74
1720433416,575:   -121  74  74
1720433416,575:    -91  74  74
1720433416,575:    -73  74  74
1720433416,575:    -69  74  74
1720433416,575:    -64  74  74
1720433416,575:    -43  74  74
1720433416,575:     -8  74  74
1720433416,575:     24  74  74
1720433416,575:     42  74  74
1720433416,575:     51  74  74
1720433416,575:     62  74  74
1720433416,575:     79  74  74
1720433416,575:     93  74  74
1720433416,606:     92  74  74
1720433416,606:     81  74  74
1720433416,606:     73  74  74
1720433416,606:     75  74  74
1720433416,606:     86  74  74
1720433416,606:     96  74  74
1720433416,606:    102  74  74
1720433416,606:    112  74  74
1720433416,606:    133  74  74
1720433416,606:    156  74  74
1720433416,606:    169  74  74
1720433416,606:    166  74  74
1720433416,606:    157  74  74
1720433416,606:    148  74  74
1720433416,606:    138  74  74
1720433416,606:    124  74  74
1720433416,606:    109  74  74
1720433416,606:    104  74  74
1720433416,606:    111  74  74
1720433416,606:    114  74  74
1720433416,606:    101  74  74
1720433416,606:     79  74  74
1720433416,606:     70  74  74
1720433416,638:     82  74  74
1720433416,638:     97  74  74
1720433416,638:     97  74  74
1720433416,638:     81  74  74
1720433416,638:     71  74  74
1720433416,638:     80  74  74
1720433416,638:    100  74  74
1720433416,638:    110  74  74
1720433416,638:    104  74  74
1720433416,638:     92  74  74
1720433416,638:     82  74  74
1720433416,638:     71  74  74
1720433416,638:     50  74  74
1720433416,638:     25  74  74
1720433416,638:     13  74  74
1720433416,668:     21  74  74
1720433416,668:     36  74  74
1720433416,668:     30  74  74
1720433416,668:     -1  74  74
1720433416,668:    -34  74  74
1720433416,668:    -40  74  74
1720433416,668:    -20  74  74
1720433416,700:     -7  74  74
1720433416,700:    -24  74  74
1720433416,700:    -65  74  74
1720433416,700:    -93  74  74
1720433416,700:    -90  74  74
1720433416,700:    -76  74  74
1720433416,700:    -81  74  74
1720433416,700:   -109  74  74
1720433416,700:   -134  74  74
1720433416,700:   -134  74  74
1720433416,700:   -117  74  74
1720433416,700:   -108  74  74
1720433416,700:   -114  74  74
1720433416,700:   -117  74  74
1720433416,700:    -96  74  74
1720433416,732:    -57  74  74
1720433416,732:    -26  74  74
1720433416,732:    -15  74  74
1720433416,732:    -15  74  74
1720433416,732:    -13  74  74
1720433416,732:     -5  74  74
1720433416,732:     -4  74  74
1720433416,732:    -14  74  74
1720433416,732:    -26  74  74
1720433416,732:    -28  74  74
1720433416,732:    -21  74  74
1720433416,732:    -20  74  74
1720433416,732:    -27  74  74
1720433416,732:    -33  74  74
1720433416,732:    -27  74  74
1720433416,732:    -10  74  74
1720433416,732:      8  74  74
1720433416,732:     17  74  74
1720433416,732:     21  74  74
1720433416,732:     27  74  74
1720433416,732:     34  74  74
1720433416,732:     33  74  74
1720433416,732:     20  74  74
1720433416,763:      6  74  74
1720433416,763:     -1  74  74
1720433416,763:     -4  74  74
1720433416,763:    -16  74  74
1720433416,763:    -35  74  74
1720433416,763:    -42  74  74
1720433416,763:    -21  74  74
1720433416,763:     18  74  74
1720433416,763:     45  74  74
1720433416,763:     43  74  74
1720433416,763:     27  74  74
1720433416,763:     23  74  74
1720433416,763:     33  74  74
1720433416,763:     36  74  74
1720433416,763:     19  74  74
1720433416,795:     -4  74  74
1720433416,795:     -6  74  74
1720433416,795:     12  74  74
1720433416,795:     21  74  74
1720433416,795:      4  74  74
1720433416,795:    -20  74  74
1720433416,795:    -21  74  74
1720433416,795:     -1  74  74
1720433416,795:     11  74  74
1720433416,795:     -8  74  74
1720433416,795:    -38  74  74
1720433416,795:    -42  74  74
1720433416,795:    -12  74  74
1720433416,795:     21  74  74
1720433416,795:     23  74  74
1720433416,827:      2  74  74
1720433416,827:    -11  74  74
1720433416,827:     -1  74  74
1720433416,827:     18  74  74
1720433416,827:     26  74  74
1720433416,827:     24  74  74
1720433416,827:     29  74  74
1720433416,827:     48  74  74
1720433416,827:     62  74  74
1720433416,827:     52  74  74
1720433416,827:     30  74  74
1720433416,827:     22  74  74
1720433416,827:     33  74  74
1720433416,827:     42  74  74
1720433416,827:     24  74  74
1720433416,827:    -12  74  74
1720433416,827:    -33  74  74
1720433416,827:    -17  74  74
1720433416,827:     13  74  74
1720433416,827:     16  74  74
1720433416,827:    -14  74  74
1720433416,827:    -47  74  74
1720433416,859:    -55  74  74
1720433416,859:    -42  74  74
1720433416,859:    -41  74  74
1720433416,859:    -60  74  74
1720433416,859:    -77  74  74
1720433416,859:    -63  74  74
1720433416,859:    -25  74  74
1720433416,859:      1  74  74
1720433416,859:     -4  74  74
1720433416,859:    -24  74  74
1720433416,859:    -28  74  74
1720433416,859:     -8  74  74
1720433416,859:     19  74  74
1720433416,859:     34  74  74
1720433416,859:     39  74  74
1720433416,890:     46  74  74
1720433416,890:     64  74  74
1720433416,890:     81  74  74
1720433416,890:     90  74  74
1720433416,890:     96  74  74
1720433416,890:    103  74  74
1720433416,890:    107  74  74
1720433416,890:     98  74  74
1720433416,921:     76  74  74
1720433416,921:     55  74  74
1720433416,921:     51  74  74
1720433416,921:     67  74  74
1720433416,921:     88  74  74
1720433416,921:    100  74  74
1720433416,921:    108  74  74
1720433416,921:    130  74  74
1720433416,921:    173  74  74
1720433416,921:    227  74  74
1720433416,921:    272  74  74
1720433416,921:    298  74  74
1720433416,921:    314  74  74
1720433416,921:    333  74  74
1720433416,921:    356  74  74
1720433416,952:    369  74  74
1720433416,952:    360  74  74
1720433416,952:    331  74  74
1720433416,952:    297  74  74
1720433416,952:    274  74  74
1720433416,952:    266  74  74
1720433416,952:    262  74  74
1720433416,952:    252  74  74
1720433416,952:    237  74  74
1720433416,952:    220  74  74
1720433416,952:    205  74  74
1720433416,952:    188  74  74
1720433416,952:    168  74  74
1720433416,952:    142  74  74
1720433416,952:    115  74  74
1720433416,952:     85  74  74
1720433416,952:     54  74  74
1720433416,952:     26  74  74
1720433416,952:     14  74  74
1720433416,952:     16  74  74
1720433416,952:     21  74  74
1720433416,952:     21  74  74
1720433416,983:     20  74  74
1720433416,983:     28  74  74
1720433416,983:     46  74  74
1720433416,983:     61  74  74
1720433416,983:     62  74  74
1720433416,983:     56  74  74
1720433416,983:     60  74  74
1720433416,983:     74  74  74
1720433416,983:     82  74  74
1720433416,983:     69  74  74
1720433416,983:     47  74  74
1720433416,983:     36  74  74
1720433416,983:     41  74  74
1720433417,015:     47  74  74
1720433417,015:     40  74  74
1720433417,015:     27  74  74
1720433417,015:     25  74  74
1720433417,015:     36  74  74
1720433417,015:     43  74  74
1720433417,015:     31  74  74
1720433417,015:      8  74  74
1720433417,015:     -4  74  74
1720433417,015:      0  74  74
1720433417,015:      6  74  74
1720433417,015:      1  74  74
1720433417,015:     -5  74  74
1720433417,015:      4  74  74
1720433417,015:     36  74  74
1720433417,046:     74  74  74
1720433417,046:     98  74  74
1720433417,046:    106  74  74
1720433417,046:    119  74  74
1720433417,046:    156  74  74
1720433417,046:    200  74  74
1720433417,046:    210  74  74
1720433417,046:    175  74  74
1720433417,046:    130  74  74
1720433417,046:    119  74  74
1720433417,046:    124  74  74
1720433417,046:     76  74  74
1720433417,046:    -58  74  74
1720433417,046:   -217  74  74
1720433417,046:   -282  74  74
1720433417,077:   -170  74  74
1720433417,077:    121  74  74
1720433417,077:    590  74  74
1720433417,077:   1303  74  74
1720433417,077:   2349  74  74
1720433417,077:   3702  74  74
1720433417,077:   5156  74  74
1720433417,077:   6445  74  74
1720433417,077:   7430  74  74
1720433417,077:   8162  74  74
1720433417,077:   8722  74  74
1720433417,077:   9010  74  74
1720433417,077:   8738  74  74
1720433417,077:   7673  74  74
1720433417,077:   5918  74  74
1720433417,077:   3920  74  74
1720433417,077:   2172  74  74
1720433417,077:    873  74  74
1720433417,077:   -132  74  74
1720433417,077:  -1073  74  74
1720433417,077:  -1950  74  74
1720433417,077:  -2510  74  74
1720433417,108:  -2525  71  74
1720433417,108:  -2047  71  74
1720433417,108:  -1387  71  74
1720433417,108:   -873  71  74
1720433417,108:   -630  71  74
1720433417,108:   -579  71  74
1720433417,108:   -593  71  74
1720433417,108:   -622  71  74
1720433417,108:   -680  71  74
1720433417,108:   -776  71  74
1720433417,108:   -891  71  74
1720433417,108:   -991  71  74
1720433417,108:  -1066  71  74
1720433417,108:  -1117  71  74
1720433417,108:  -1148  71  74
1720433417,139:  -1155  71  74
1720433417,139:  -1129  71  74
1720433417,139:  -1078  71  74
1720433417,139:  -1031  71  74
1720433417,139:  -1017  71  74
1720433417,139:  -1042  71  74
1720433417,139:  -1079  71  74
1720433417,139:  -1088  71  74
1720433417,170:  -1048  71  74
1720433417,170:   -975  71  74
1720433417,170:   -902  71  74
1720433417,170:   -850  71  74
1720433417,170:   -814  71  74
1720433417,170:   -786  71  74
1720433417,170:   -766  71  74
1720433417,170:   -762  71  74
1720433417,170:   -771  71  74
1720433417,170:   -769  71  74
1720433417,170:   -730  71  74
1720433417,170:   -653  71  74
1720433417,170:   -568  71  74
1720433417,170:   -507  71  74
1720433417,170:   -483  71  74
1720433417,170:   -483  71  74
1720433417,170:   -486  71  74
1720433417,170:   -483  71  74
1720433417,170:   -475  71  74
1720433417,170:   -465  71  74
1720433417,170:   -449  71  74
1720433417,170:   -427  71  74
1720433417,202:   -407  71  74
1720433417,202:   -391  71  74
1720433417,202:   -377  71  74
1720433417,202:   -363  71  74
1720433417,202:   -351  71  74
1720433417,202:   -344  71  74
1720433417,202:   -340  71  74
1720433417,202:   -327  71  74
1720433417,202:   -296  71  74
1720433417,202:   -260  71  74
1720433417,202:   -237  71  74
1720433417,202:   -233  71  74
1720433417,202:   -232  71  74
1720433417,202:   -216  71  74
1720433417,202:   -190  71  74
1720433417,234:   -172  71  74
1720433417,234:   -177  71  74
1720433417,234:   -193  71  74
1720433417,234:   -200  71  74
1720433417,234:   -189  71  74
1720433417,234:   -178  71  74
1720433417,234:   -181  71  74
1720433417,234:   -194  71  74
1720433417,234:   -199  71  74
1720433417,234:   -181  71  74
1720433417,234:   -144  71  74
1720433417,234:   -108  71  74
1720433417,234:    -83  71  74
1720433417,234:    -61  71  74
1720433417,234:    -30  71  74
1720433417,266:      5  71  74
1720433417,266:     30  71  74
1720433417,266:     33  71  74
1720433417,266:     21  71  74
1720433417,266:     12  71  74
1720433417,266:     14  71  74
1720433417,266:     23  71  74
1720433417,266:     27  71  74
1720433417,266:     25  71  74
1720433417,266:     25  71  74
1720433417,266:     26  71  74
1720433417,266:     20  71  74
1720433417,266:      2  71  74
1720433417,266:    -20  71  74
1720433417,266:    -39  71  74
1720433417,297:    -54  71  74
1720433417,297:    -68  71  74
1720433417,297:    -83  71  74
1720433417,297:    -91  71  74
1720433417,297:    -89  71  74
1720433417,297:    -91  71  74
1720433417,297:   -112  71  74
1720433417,297:   -143  71  74
1720433417,297:   -163  71  74
1720433417,297:   -165  71  74
1720433417,297:   -163  71  74
1720433417,297:   -181  71  74
1720433417,297:   -214  71  74
1720433417,297:   -236  71  74
1720433417,297:   -225  71  74
1720433417,297:   -192  71  74
1720433417,297:   -171  71  74
1720433417,297:   -176  71  74
1720433417,297:   -190  71  74
1720433417,297:   -190  71  74
1720433417,297:   -174  71  74
1720433417,297:   -160  71  74
1720433417,297:   -166  71  74
1720433417,329:   -184  71  74
1720433417,329:   -195  71  74
1720433417,329:   -195  71  74
1720433417,329:   -199  71  74
1720433417,329:   -223  71  74
1720433417,329:   -256  71  74
1720433417,329:   -279  71  74
1720433417,361:   -282  71  74
1720433417,361:   -277  71  74
1720433417,361:   -275  71  74
1720433417,361:   -274  71  74
1720433417,361:   -258  71  74
1720433417,361:   -227  71  74
1720433417,361:   -199  71  74
1720433417,361:   -188  71  74
1720433417,361:   -189  71  74
1720433417,361:   -192  71  74
1720433417,361:   -193  71  74
1720433417,361:   -202  71  74
1720433417,361:   -227  71  74
1720433417,361:   -257  71  74
1720433417,361:   -273  71  74
1720433417,361:   -272  71  74
1720433417,361:   -268  71  74
1720433417,361:   -274  71  74
1720433417,361:   -288  71  74
1720433417,361:   -296  71  74
1720433417,361:   -291  71  74
1720433417,361:   -282  71  74
1720433417,361:   -276  71  74
1720433417,393:   -275  71  74
1720433417,393:   -275  71  74
1720433417,393:   -278  71  74
1720433417,393:   -291  71  74
1720433417,393:   -315  71  74
1720433417,393:   -335  71  74
1720433417,393:   -336  71  74
1720433417,393:   -327  71  74
1720433417,393:   -327  71  74
1720433417,393:   -343  71  74
1720433417,393:   -350  71  74
1720433417,393:   -323  71  74
1720433417,393:   -268  71  74
1720433417,393:   -226  71  74
1720433417,393:   -223  71  74
1720433417,425:   -247  71  74
1720433417,425:   -257  71  74
1720433417,425:   -245  71  74
1720433417,425:   -235  71  74
1720433417,425:   -252  71  74
1720433417,425:   -283  71  74
1720433417,425:   -294  71  74
1720433417,425:   -271  71  74
1720433417,425:   -242  71  74
1720433417,425:   -234  71  74
1720433417,425:   -239  71  74
1720433417,425:   -225  71  74
1720433417,425:   -184  71  74
1720433417,425:   -139  71  74
1720433417,425:   -121  71  74
1720433417,457:   -125  71  74
1720433417,457:   -124  71  74
1720433417,457:    -95  71  74
1720433417,457:    -56  71  74
1720433417,457:    -41  71  74
1720433417,457:    -58  71  74
1720433417,457:    -85  71  74
1720433417,457:    -94  71  74
1720433417,457:    -81  71  74
1720433417,457:    -68  71  74
1720433417,457:    -74  71  74
1720433417,457:    -92  71  74
1720433417,457:   -100  71  74
1720433417,457:    -92  71  74
1720433417,457:    -81  71  74
1720433417,489:    -82  71  74
1720433417,489:    -93  71  74
1720433417,489:    -97  71  74
1720433417,489:    -88  71  74
1720433417,489:    -74  71  74
1720433417,489:    -65  71  74
1720433417,489:    -59  71  74
1720433417,489:    -41  71  74
1720433417,489:     -8  71  74
1720433417,489:     22  71  74
1720433417,489:     30  71  74
1720433417,489:     16  71  74
1720433417,489:      0  71  74
1720433417,489:     -2  71  74
1720433417,489:      9  71  74
1720433417,489:     20  71  74
1720433417,489:     22  71  74
1720433417,489:     20  71  74
1720433417,489:     26  71  74
1720433417,489:     42  71  74
1720433417,489:     60  71  74
1720433417,489:     74  71  74
1720433417,521:     87  71  74
1720433417,521:    100  71  74
1720433417,521:    114  71  74
1720433417,521:    123  71  74
1720433417,521:    129  71  74
1720433417,521:    137  71  74
1720433417,521:    152  71  74
1720433417,521:    165  71  74
1720433417,521:    167  71  74
1720433417,521:    158  71  74
1720433417,521:    150  71  74
1720433417,521:    149  71  74
1720433417,521:    149  71  74
1720433417,521:    143  71  74
1720433417,521:    130  71  74
1720433417,552:    123  71  74
1720433417,552:    131  71  74
1720433417,552:    145  71  74
1720433417,552:    143  71  74
1720433417,552:    121  71  74
1720433417,552:     96  71  74
1720433417,552:     88  71  74
1720433417,552:    101  71  74
1720433417,584:    116  71  74
1720433417,584:    121  71  74
1720433417,584:    119  71  74
1720433417,584:    128  71  74
1720433417,584:    154  71  74
1720433417,584:    179  71  74
1720433417,584:    183  71  74
1720433417,584:    171  71  74
1720433417,584:    159  71  74
1720433417,584:    156  71  74
1720433417,584:    152  71  74
1720433417,584:    134  71  74
1720433417,584:    111  71  74
1720433417,584:    106  71  74
1720433417,584:    125  71  74
1720433417,584:    145  71  74
1720433417,584:    140  71  74
1720433417,584:    119  71  74
1720433417,584:    109  71  74
1720433417,584:    124  71  74
1720433417,584:    142  71  74
1720433417,584:    132  71  74
1720433417,614:     98  71  74
1720433417,614:     79  71  74
1720433417,614:     94  71  74
1720433417,614:    120  71  74
1720433417,614:    118  71  74
1720433417,614:     84  71  74
1720433417,614:     55  71  74
1720433417,614:     57  71  74
1720433417,614:     80  71  74
1720433417,614:     85  71  74
1720433417,614:     63  71  74
1720433417,614:     37  71  74
1720433417,614:     37  71  74
1720433417,614:     57  71  74
1720433417,614:     67  71  74
1720433417,646:     57  71  74
1720433417,646:     45  71  74
1720433417,646:     51  71  74
1720433417,646:     70  71  74
1720433417,646:     83  71  74
1720433417,646:     82  71  74
1720433417,646:     84  71  74
1720433417,646:    105  71  74
1720433417,646:    136  71  74
1720433417,646:    154  71  74
1720433417,646:    149  71  74
1720433417,646:    133  71  74
1720433417,646:    125  71  74
1720433417,646:    124  71  74
1720433417,646:    117  71  74
1720433417,676:     98  71  74
1720433417,676:     79  71  74
1720433417,676:     78  71  74
1720433417,676:     95  71  74
1720433417,676:    109  71  74
1720433417,676:    106  71  74
1720433417,676:     94  71  74
1720433417,676:     93  71  74
1720433417,676:    111  71  74
1720433417,676:    135  71  74
1720433417,676:    143  71  74
1720433417,676:    135  71  74
1720433417,676:    126  71  74
1720433417,676:    129  71  74
1720433417,676:    135  71  74
1720433417,707:    128  71  74
1720433417,707:    111  71  74
1720433417,707:     99  71  74
1720433417,707:    102  71  74
1720433417,707:    110  71  74
1720433417,707:    107  71  74
1720433417,707:     92  71  74
1720433417,707:     83  71  74
1720433417,707:     89  71  74
1720433417,707:     98  71  74
1720433417,707:     91  71  74
1720433417,707:     68  71  74
1720433417,707:     42  71  74
1720433417,707:     26  71  74
1720433417,707:     19  71  74
1720433417,707:     13  71  74
1720433417,707:      7  71  74
1720433417,707:     10  71  74
1720433417,707:     24  71  74
1720433417,707:     40  71  74
1720433417,707:     48  71  74
1720433417,707:     48  71  74
1720433417,707:     48  71  74
1720433417,738:     52  71  74
1720433417,738:     60  71  74
1720433417,738:     65  71  74
1720433417,738:     67  71  74
1720433417,738:     69  71  74
1720433417,738:     76  71  74
1720433417,738:     85  71  74
1720433417,738:     91  71  74
1720433417,738:     91  71  74
1720433417,738:     89  71  74
1720433417,738:     86  71  74
1720433417,738:     87  71  74
1720433417,738:     95  71  74
1720433417,738:    104  71  74
1720433417,738:    111  71  74
1720433417,769:    114  71  74
1720433417,769:    109  71  74
1720433417,769:     99  71  74
1720433417,769:     89  71  74
1720433417,769:     85  71  74
1720433417,769:     86  71  74
1720433417,769:     84  71  74
1720433417,801:     71  71  74
1720433417,801:     54  71  74
1720433417,801:     53  71  74
1720433417,801:     83  71  74
1720433417,801:    132  71  74
1720433417,801:    172  71  74
1720433417,801:    188  71  74
1720433417,801:    193  71  74
1720433417,801:    206  71  74
1720433417,801:    231  71  74
1720433417,801:    250  71  74
1720433417,801:    243  71  74
1720433417,801:    218  71  74
1720433417,801:    199  71  74
1720433417,801:    195  71  74
1720433417,801:    187  71  74
1720433417,801:    158  71  74
1720433417,801:    117  71  74
1720433417,801:     92  71  74
1720433417,801:     93  71  74
1720433417,801:    101  71  74
1720433417,801:     92  71  74
1720433417,801:     64  71  74
1720433417,832:     45  71  74
1720433417,832:     48  71  74
1720433417,832:     56  71  74
1720433417,832:     38  71  74
1720433417,832:     -5  71  74
1720433417,832:    -50  71  74
1720433417,832:    -76  71  74
1720433417,832:    -85  71  74
1720433417,832:    -95  71  74
1720433417,832:   -108  71  74
1720433417,832:   -109  71  74
1720433417,832:    -88  71  74
1720433417,832:    -63  71  74
1720433417,832:    -58  71  74
1720433417,832:    -71  71  74
1720433417,863:    -81  71  74
1720433417,863:    -75  71  74
1720433417,863:    -65  71  74
1720433417,863:    -74  71  74
1720433417,863:   -102  71  74
1720433417,863:   -126  71  74
1720433417,863:   -123  71  74
1720433417,863:   -102  71  74
1720433417,863:    -89  71  74
1720433417,863:    -96  71  74
1720433417,863:   -107  71  74
1720433417,863:   -102  71  74
1720433417,863:    -78  71  74
1720433417,863:    -54  71  74
1720433417,863:    -43  71  74
1720433417,895:    -41  71  74
1720433417,895:    -35  71  74
1720433417,895:    -24  71  74
1720433417,895:    -17  71  74
1720433417,895:    -24  71  74
1720433417,895:    -39  71  74
1720433417,895:    -53  71  74
1720433417,895:    -60  71  74
1720433417,895:    -63  71  74
1720433417,895:    -64  71  74
1720433417,895:    -57  71  74
1720433417,895:    -33  71  74
1720433417,895:     -3  71  74
1720433417,895:     26  71  74
1720433417,895:     52  71  74
1720433417,926:     79  71  74
1720433417,926:     96  71  74
1720433417,926:     94  71  74
1720433417,926:     76  71  74
1720433417,926:     63  71  74
1720433417,926:     54  71  74
1720433417,926:     13  71  74
1720433417,926:    -95  71  74
1720433417,926:   -244  71  74
1720433417,926:   -337  71  74
1720433417,926:   -273  71  74
1720433417,926:    -17  71  74
1720433417,926:    425  71  74
1720433417,926:   1089  71  74
1720433417,926:   2058  71  74
1720433417,957:   3352  71  74
1720433417,957:   4819  71  74
1720433417,957:   6185  71  74
1720433417,957:   7241  71  74
1720433417,957:   7987  71  74
1720433417,957:   8535  71  74
1720433417,957:   8860  71  74
1720433417,957:   8703  71  74
1720433417,957:   7780  71  74
1720433417,957:   6105  71  74
1720433417,957:   4099  71  74
1720433417,957:   2304  71  74
1720433417,957:    983  71  74
1720433417,957:      0  71  74
1720433417,957:   -910  71  74
1720433417,957:  -1790  71  74
1720433417,957:  -2398  71  74
1720433417,957:  -2485  71  74
1720433417,957:  -2074  71  74
1720433417,957:  -1457  71  74
1720433417,957:   -954  71  74
1720433417,957:   -699  71  74
1720433417,987:   -628  69  73
1720433417,987:   -634  69  73
1720433417,987:   -668  69  73
1720433417,987:   -726  69  73
1720433417,987:   -805  69  73
1720433417,987:   -894  69  73
1720433417,987:   -985  69  73
1720433417,987:  -1074  69  73
1720433418,019:  -1147  69  73
1720433418,019:  -1180  69  73
1720433418,019:  -1168  69  73
1720433418,019:  -1130  69  73
1720433418,019:  -1094  69  73
1720433418,019:  -1078  69  73
1720433418,019:  -1082  69  73
1720433418,019:  -1097  69  73
1720433418,019:  -1116  69  73
1720433418,019:  -1130  69  73
1720433418,019:  -1133  69  73
1720433418,019:  -1116  69  73
1720433418,019:  -1072  69  73
1720433418,019:  -1010  69  73
1720433418,019:   -957  69  73
1720433418,019:   -937  69  73
1720433418,019:   -953  69  73
1720433418,019:   -982  69  73
1720433418,019:   -996  69  73
1720433418,049:   -980  69  73
1720433418,049:   -945  69  73
1720433418,049:   -906  69  73
1720433418,049:   -867  69  73
1720433418,049:   -825  69  73
1720433418,049:   -785  69  73
1720433418,049:   -758  69  73
1720433418,049:   -753  69  73
1720433418,049:   -758  69  73
1720433418,049:   -752  69  73
1720433418,049:   -725  69  73
1720433418,049:   -686  69  73
1720433418,049:   -649  69  73
1720433418,049:   -618  69  73
1720433418,049:   -591  69  73
1720433418,080:   -574  69  73
1720433418,080:   -572  69  73
1720433418,080:   -583  69  73
1720433418,080:   -588  69  73
1720433418,080:   -573  69  73
1720433418,080:   -541  69  73
1720433418,080:   -514  69  73
1720433418,080:   -502  69  73
1720433418,080:   -492  69  73
1720433418,080:   -468  69  73
1720433418,080:   -432  69  73
1720433418,080:   -404  69  73
1720433418,080:   -397  69  73
1720433418,080:   -401  69  73
1720433418,080:   -400  69  73
1720433418,111:   -390  69  73
1720433418,111:   -376  69  73
1720433418,111:   -361  69  73
1720433418,111:   -339  69  73
1720433418,111:   -309  69  73
1720433418,111:   -283  69  73
1720433418,111:   -274  69  73
1720433418,111:   -272  69  73
1720433418,111:   -260  69  73
1720433418,111:   -231  69  73
1720433418,111:   -201  69  73
1720433418,111:   -186  69  73
1720433418,111:   -181  69  73
1720433418,111:   -167  69  73
1720433418,111:   -131  69  73
1720433418,142:    -87  69  73
1720433418,142:    -55  69  73
1720433418,142:    -39  69  73
1720433418,142:    -26  69  73
1720433418,142:    -10  69  73
1720433418,142:      5  69  73
1720433418,142:      9  69  73
1720433418,142:      6  69  73
1720433418,142:      6  69  73
1720433418,142:     16  69  73
1720433418,142:     22  69  73
1720433418,142:     12  69  73
1720433418,142:    -10  69  73
1720433418,142:    -26  69  73
1720433418,142:    -26  69  73
1720433418,172:    -19  69  73
1720433418,172:    -26  69  73
1720433418,172:    -52  69  73
1720433418,172:    -81  69  73
1720433418,172:    -90  69  73
1720433418,172:    -80  69  73
1720433418,172:    -72  69  73
1720433418,172:    -89  69  73
1720433418,172:   -124  69  73
1720433418,172:   -154  69  73
1720433418,172:   -161  69  73
1720433418,172:   -152  69  73
1720433418,172:   -148  69  73
1720433418,172:   -156  69  73
1720433418,172:   -164  69  73
1720433418,204:   -154  69  73
1720433418,204:   -131  69  73
1720433418,204:   -113  69  73
1720433418,204:   -114  69  73
1720433418,204:   -128  69  73
1720433418,204:   -143  69  73
1720433418,204:   -152  69  73
1720433418,204:   -163  69  73
1720433418,204:   -178  69  73
1720433418,204:   -197  69  73
1720433418,204:   -210  69  73
1720433418,204:   -220  69  73
1720433418,204:   -229  69  73
1720433418,204:   -237  69  73
1720433418,204:   -236  69  73
1720433418,236:   -226  69  73
1720433418,236:   -213  69  73
1720433418,236:   -208  69  73
1720433418,236:   -209  69  73
1720433418,236:   -205  69  73
1720433418,236:   -187  69  73
1720433418,236:   -168  69  73
1720433418,236:   -164  69  73
1720433418,236:   -178  69  73
1720433418,236:   -192  69  73
1720433418,236:   -193  69  73
1720433418,236:   -184  69  73
1720433418,236:   -179  69  73
1720433418,236:   -180  69  73
1720433418,236:   -174  69  73
1720433418,267:   -149  69  73
1720433418,267:   -115  69  73
1720433418,267:    -98  69  73
1720433418,267:   -102  69  73
1720433418,267:   -108  69  73
1720433418,267:    -93  69  73
1720433418,267:    -63  69  73
1720433418,267:    -43  69  73
1720433418,267:    -48  69  73
1720433418,267:    -60  69  73
1720433418,267:    -52  69  73
1720433418,267:    -18  69  73
1720433418,267:     13  69  73
1720433418,267:     15  69  73
1720433418,267:     -7  69  73
1720433418,299:    -27  69  73
1720433418,299:    -28  69  73
1720433418,299:    -21  69  73
1720433418,299:    -26  69  73
1720433418,299:    -45  69  73
1720433418,299:    -61  69  73
1720433418,299:    -64  69  73
1720433418,299:    -64  69  73
1720433418,299:    -70  69  73
1720433418,299:    -81  69  73
1720433418,299:    -82  69  73
1720433418,299:    -74  69  73
1720433418,299:    -71  69  73
1720433418,299:    -84  69  73
1720433418,299:    -99  69  73
1720433418,299:    -90  69  73
1720433418,299:    -53  69  73
1720433418,299:    -13  69  73
1720433418,299:      5  69  73
1720433418,299:      4  69  73
1720433418,299:      8  69  73
1720433418,299:     26  69  73
1720433418,299:     41  69  73
1720433418,331:     34  69  73
1720433418,331:     12  69  73
1720433418,331:     -1  69  73
1720433418,331:      7  69  73
1720433418,331:     13  69  73
1720433418,331:     -5  69  73
1720433418,331:    -39  69  73
1720433418,331:    -59  69  73
1720433418,331:    -48  69  73
1720433418,331:    -25  69  73
1720433418,331:    -18  69  73
1720433418,331:    -29  69  73
1720433418,331:    -34  69  73
1720433418,331:    -14  69  73
1720433418,331:     15  69  73
1720433418,362:     27  69  73
1720433418,362:     16  69  73
1720433418,362:      0  69  73
1720433418,362:     -8  69  73
1720433418,362:    -18  69  73
1720433418,362:    -47  69  73
1720433418,362:    -90  69  73
1720433418,392:   -119  69  73
1720433418,392:   -112  69  73
1720433418,392:    -87  69  73
1720433418,392:    -79  69  73
1720433418,392:   -101  69  73
1720433418,392:   -126  69  73
1720433418,392:   -123  69  73
1720433418,392:    -92  69  73
1720433418,392:    -66  69  73
1720433418,392:    -70  69  73
1720433418,392:    -89  69  73
1720433418,392:    -89  69  73
1720433418,392:    -65  69  73
1720433418,392:    -48  69  73
1720433418,392:    -64  69  73
1720433418,392:   -103  69  73
1720433418,392:   -130  69  73
1720433418,392:   -131  69  73
1720433418,392:   -129  69  73
1720433418,392:   -153  69  73
1720433418,392:   -196  69  73
1720433418,392:   -221  69  73
1720433418,392:   -209  69  73
1720433418,423:   -182  69  73
1720433418,423:   -173  69  73
1720433418,423:   -188  69  73
1720433418,423:   -204  69  73
1720433418,423:   -206  69  73
1720433418,423:   -200  69  73
1720433418,423:   -202  69  73
1720433418,423:   -213  69  73
1720433418,423:   -215  69  73
1720433418,423:   -198  69  73
1720433418,423:   -176  69  73
1720433418,423:   -172  69  73
1720433418,423:   -186  69  73
1720433418,423:   -199  69  73
1720433418,423:   -194  69  73
1720433418,454:   -177  69  73
1720433418,454:   -165  69  73
1720433418,454:   -167  69  73
1720433418,454:   -171  69  73
1720433418,454:   -164  69  73
1720433418,454:   -150  69  73
1720433418,454:   -144  69  73
1720433418,454:   -146  69  73
1720433418,454:   -147  69  73
1720433418,454:   -143  69  73
1720433418,454:   -145  69  73
1720433418,454:   -162  69  73
1720433418,454:   -186  69  73
1720433418,454:   -195  69  73
1720433418,454:   -180  69  73
1720433418,486:   -162  69  73
1720433418,486:   -167  69  73
1720433418,486:   -193  69  73
1720433418,486:   -212  69  73
1720433418,486:   -201  69  73
1720433418,486:   -174  69  73
1720433418,486:   -157  69  73
1720433418,486:   -159  69  73
1720433418,486:   -164  69  73
1720433418,486:   -151  69  73
1720433418,486:   -128  69  73
1720433418,486:   -113  69  73
1720433418,486:   -113  69  73
1720433418,486:   -114  69  73
1720433418,486:   -103  69  73
1720433418,486:    -85  69  73
1720433418,486:    -75  69  73
1720433418,486:    -76  69  73
1720433418,486:    -72  69  73
1720433418,486:    -49  69  73
1720433418,486:    -16  69  73
1720433418,486:      1  69  73
1720433418,518:     -6  69  73
1720433418,518:    -22  69  73
1720433418,518:    -25  69  73
1720433418,518:    -15  69  73
1720433418,518:    -11  69  73
1720433418,518:    -23  69  73
1720433418,518:    -35  69  73
1720433418,518:    -23  69  73
1720433418,549:     15  69  73
1720433418,549:     50  69  73
1720433418,549:     53  69  73
1720433418,549:     33  69  73
1720433418,549:     19  69  73
1720433418,549:     31  69  73
1720433418,549:     61  69  73
1720433418,549:     82  69  73
1720433418,549:     84  69  73
1720433418,549:     78  69  73
1720433418,549:     79  69  73
1720433418,549:     84  69  73
1720433418,549:     88  69  73
1720433418,549:     85  69  73
1720433418,549:     80  69  73
1720433418,549:     72  69  73
1720433418,549:     57  69  73
1720433418,549:     34  69  73
1720433418,549:     12  69  73
1720433418,549:      7  69  73
1720433418,549:     23  69  73
1720433418,549:     43  69  73
1720433418,581:     46  69  73
1720433418,581:     29  69  73
1720433418,581:     11  69  73
1720433418,581:      6  69  73
1720433418,581:     16  69  73
1720433418,581:     26  69  73
1720433418,581:     26  69  73
1720433418,581:     18  69  73
1720433418,581:     16  69  73
1720433418,581:     21  69  73
1720433418,581:     23  69  73
1720433418,581:     14  69  73
1720433418,581:     -1  69  73
1720433418,581:    -11  69  73
1720433418,581:     -9  69  73
1720433418,613:     -3  69  73
1720433418,613:     -2  69  73
1720433418,613:     -5  69  73
1720433418,613:     -3  69  73
1720433418,613:      4  69  73
1720433418,613:      6  69  73
1720433418,613:     -3  69  73
1720433418,613:    -18  69  73
1720433418,613:    -29  69  73
1720433418,613:    -33  69  73
1720433418,613:    -32  69  73
1720433418,613:    -30  69  73
1720433418,613:    -22  69  73
1720433418,613:     -4  69  73
1720433418,613:     14  69  73
1720433418,645:     18  69  73
1720433418,645:      9  69  73
1720433418,645:      4  69  73
1720433418,645:     12  69  73
1720433418,645:     19  69  73
1720433418,645:      5  69  73
1720433418,645:    -26  69  73
1720433418,645:    -43  69  73
1720433418,645:    -18  69  73
1720433418,645:     33  69  73
1720433418,645:     68  69  73
1720433418,645:     63  69  73
1720433418,645:     43  69  73
1720433418,645:     46  69  73
1720433418,645:     75  69  73
1720433418,677:     99  69  73
1720433418,677:     91  69  73
1720433418,677:     60  69  73
1720433418,677:     40  69  73
1720433418,677:     46  69  73
1720433418,677:     58  69  73
1720433418,677:     50  69  73
1720433418,677:     23  69  73
1720433418,677:      8  69  73
1720433418,677:     24  69  73
1720433418,677:     63  69  73
1720433418,677:     96  69  73
1720433418,677:    111  69  73
1720433418,677:    121  69  73
1720433418,677:    150  69  73
1720433418,707:    193  69  73
1720433418,707:    222  69  73
1720433418,707:    218  69  73
1720433418,707:    193  69  73
1720433418,707:    169  69  73
1720433418,707:    157  69  73
1720433418,707:    144  69  73
1720433418,707:    116  69  73
1720433418,707:     83  69  73
1720433418,707:     68  69  73
1720433418,707:     74  69  73
1720433418,707:     75  69  73
1720433418,707:     48  69  73
1720433418,707:      4  69  73
1720433418,707:    -29  69  73
1720433418,739:    -32  69  73
1720433418,739:    -23  69  73
1720433418,739:    -30  69  73
1720433418,739:    -57  69  73
1720433418,739:    -79  69  73
1720433418,739:    -80  69  73
1720433418,739:    -67  69  73
1720433418,739:    -61  69  73
1720433418,739:    -70  69  73
1720433418,739:    -82  69  73
1720433418,739:    -83  69  73
1720433418,739:    -76  69  73
1720433418,739:    -72  69  73
1720433418,739:    -73  69  73
1720433418,739:    -71  69  73
1720433418,739:    -61  69  73
1720433418,739:    -52  69  73
1720433418,739:    -55  69  73
1720433418,739:    -75  69  73
1720433418,739:   -100  69  73
1720433418,739:   -121  69  73
1720433418,739:   -131  69  73
1720433418,739:   -134  69  73
1720433418,771:   -133  69  73
1720433418,771:   -131  69  73
1720433418,771:   -130  69  73
1720433418,771:   -133  69  73
1720433418,771:   -137  69  73
1720433418,771:   -130  69  73
1720433418,771:   -112  69  73
1720433418,771:    -99  69  73
1720433418,771:   -105  69  73
1720433418,771:   -131  69  73
1720433418,771:   -154  69  73
1720433418,771:   -155  69  73
1720433418,771:   -137  69  73
1720433418,771:   -125  69  73
1720433418,771:   -128  69  73
1720433418,803:   -134  69  73
1720433418,803:   -122  69  73
1720433418,803:    -97  69  73
1720433418,803:    -71  69  73
1720433418,803:    -43  69  73
1720433418,803:    -12  69  73
1720433418,803:     11  69  73
1720433418,803:      7  69  73
1720433418,803:    -24  69  73
1720433418,803:    -53  69  73
1720433418,803:    -63  69  73
1720433418,803:    -91  69  73
1720433418,803:   -188  69  73
1720433418,803:   -341  69  73
1720433418,803:   -451  69  73
1720433418,835:   -413  69  73
1720433418,835:   -197  69  73
1720433418,835:    189  69  73
1720433418,835:    792  69  73
1720433418,835:   1722  69  73
1720433418,835:   3018  69  73
1720433418,835:   4513  69  73
1720433418,835:   5895  69  73
1720433418,835:   6952  69  73
1720433418,835:   7719  69  73
1720433418,835:   8344  69  73
1720433418,835:   8802  69  73
1720433418,835:   8795  69  73
1720433418,835:   7990  69  73
1720433418,835:   6387  69  73
1720433418,865:   4415  68  70
1720433418,865:   2634  68  70
1720433418,865:   1315  68  70
1720433418,865:    329  68  70
1720433418,865:   -588  68  70
1720433418,865:  -1486  68  70
1720433418,865:  -2137  68  70
1720433418,865:  -2286  68  70
1720433418,865:  -1936  68  70
1720433418,865:  -1356  68  70
1720433418,865:   -863  68  70
1720433418,865:   -611  68  70
1720433418,865:   -557  68  70
1720433418,865:   -590  68  70
1720433418,865:   -643  68  70
1720433418,897:   -703  68  70
1720433418,897:   -764  68  70
1720433418,897:   -818  68  70
1720433418,897:   -861  68  70
1720433418,897:   -905  68  70
1720433418,897:   -955  68  70
1720433418,897:   -996  68  70
1720433418,897:  -1013  68  70
1720433418,897:  -1006  68  70
1720433418,897:   -990  68  70
1720433418,897:   -982  68  70
1720433418,897:   -987  68  70
1720433418,897:   -997  68  70
1720433418,897:  -1005  68  70
1720433418,897:  -1008  68  70
1720433418,929:   -998  68  70
1720433418,929:   -962  68  70
1720433418,929:   -894  68  70
1720433418,929:   -816  68  70
1720433418,929:   -762  68  70
1720433418,929:   -749  68  70
1720433418,929:   -766  68  70
1720433418,929:   -783  68  70
1720433418,929:   -777  68  70
1720433418,929:   -757  68  70
1720433418,929:   -738  68  70
1720433418,929:   -723  68  70
1720433418,929:   -702  68  70
1720433418,929:   -674  68  70
1720433418,929:   -648  68  70
1720433418,929:   -633  68  70
1720433418,929:   -629  68  70
1720433418,929:   -621  68  70
1720433418,929:   -597  68  70
1720433418,929:   -567  68  70
1720433418,929:   -543  68  70
1720433418,929:   -525  68  70
1720433418,961:   -501  68  70
1720433418,961:   -470  68  70
1720433418,961:   -448  68  70
1720433418,961:   -450  68  70
1720433418,961:   -470  68  70
1720433418,961:   -481  68  70
1720433418,961:   -466  68  70
1720433418,961:   -439  68  70
1720433418,961:   -427  68  70
1720433418,961:   -432  68  70
1720433418,961:   -433  68  70
1720433418,961:   -417  68  70
1720433418,961:   -395  68  70
1720433418,961:   -388  68  70
1720433418,961:   -395  68  70
1720433418,992:   -393  68  70
1720433418,992:   -364  68  70
1720433418,992:   -326  68  70
1720433418,992:   -312  68  70
1720433418,992:   -329  68  70
1720433418,992:   -348  68  70
1720433418,992:   -339  68  70
1720433418,992:   -310  68  70
1720433418,992:   -293  68  70
1720433418,992:   -300  68  70
1720433418,992:   -308  68  70
1720433418,992:   -282  68  70
1720433418,992:   -228  68  70
1720433418,992:   -182  68  70
1720433418,992:   -174  68  70
1720433419,022:   -188  68  70
1720433419,022:   -192  68  70
1720433419,022:   -175  68  70
1720433419,022:   -162  68  70
1720433419,022:   -178  68  70
1720433419,022:   -212  68  70
1720433419,022:   -228  68  70
1720433419,022:   -209  68  70
1720433419,022:   -184  68  70
1720433419,022:   -184  68  70
1720433419,022:   -204  68  70
1720433419,022:   -210  68  70
1720433419,022:   -185  68  70
1720433419,053:   -154  68  70
1720433419,053:   -150  68  70
1720433419,053:   -174  68  70
1720433419,053:   -190  68  70
1720433419,053:   -177  68  70
1720433419,053:   -157  68  70
1720433419,053:   -170  68  70
1720433419,053:   -212  68  70
1720433419,053:   -245  68  70
1720433419,053:   -244  68  70
1720433419,053:   -232  68  70
1720433419,053:   -246  68  70
1720433419,053:   -285  68  70
1720433419,053:   -303  68  70
1720433419,053:   -270  68  70
1720433419,053:   -214  68  70
1720433419,053:   -193  68  70
1720433419,053:   -221  68  70
1720433419,053:   -254  68  70
1720433419,053:   -242  68  70
1720433419,053:   -189  68  70
1720433419,053:   -148  68  70
1720433419,085:   -152  68  70
1720433419,085:   -176  68  70
1720433419,085:   -169  68  70
1720433419,085:   -120  68  70
1720433419,085:    -68  68  70
1720433419,085:    -56  68  70
1720433419,085:    -79  68  70
1720433419,085:    -97  68  70
1720433419,116:    -85  68  70
1720433419,116:    -62  68  70
1720433419,116:    -61  68  70
1720433419,116:    -84  68  70
1720433419,116:   -100  68  70
1720433419,116:    -83  68  70
1720433419,116:    -53  68  70
1720433419,116:    -42  68  70
1720433419,116:    -60  68  70
1720433419,116:    -80  68  70
1720433419,116:    -77  68  70
1720433419,116:    -57  68  70
1720433419,116:    -50  68  70
1720433419,116:    -66  68  70
1720433419,116:    -84  68  70
1720433419,147:    -76  68  70
1720433419,147:    -50  68  70
1720433419,147:    -34  68  70
1720433419,147:    -44  68  70
1720433419,147:    -63  68  70
1720433419,147:    -68  68  70
1720433419,147:    -53  68  70
1720433419,147:    -38  68  70
1720433419,147:    -35  68  70
1720433419,147:    -35  68  70
1720433419,147:    -22  68  70
1720433419,147:      2  68  70
1720433419,147:     19  68  70
1720433419,147:     19  68  70
1720433419,147:     12  68  70
1720433419,147:     10  68  70
1720433419,147:     11  68  70
1720433419,147:      0  68  70
1720433419,147:    -24  68  70
1720433419,147:    -45  68  70
1720433419,147:    -40  68  70
1720433419,147:    -15  68  70
1720433419,179:      1  68  70
1720433419,179:    -11  68  70
1720433419,179:    -40  68  70
1720433419,179:    -55  68  70
1720433419,179:    -43  68  70
1720433419,179:    -18  68  70
1720433419,179:     -8  68  70
1720433419,179:    -22  68  70
1720433419,179:    -42  68  70
1720433419,179:    -55  68  70
1720433419,179:    -62  68  70
1720433419,179:    -71  68  70
1720433419,179:    -84  68  70
1720433419,179:    -99  68  70
1720433419,179:   -113  68  70
1720433419,210:   -126  68  70
1720433419,210:   -137  68  70
1720433419,210:   -133  68  70
1720433419,210:   -103  68  70
1720433419,210:    -59  68  70
1720433419,210:    -29  68  70
1720433419,210:    -28  68  70
1720433419,210:    -42  68  70
1720433419,210:    -46  68  70
1720433419,210:    -33  68  70
1720433419,210:    -18  68  70
1720433419,210:    -16  68  70
1720433419,210:    -21  68  70
1720433419,210:     -9  68  70
1720433419,210:     23  68  70
1720433419,241:     53  68  70
1720433419,241:     61  68  70
1720433419,241:     54  68  70
1720433419,241:     54  68  70
1720433419,241:     68  68  70
1720433419,241:     79  68  70
1720433419,241:     70  68  70
1720433419,241:     49  68  70
1720433419,241:     43  68  70
1720433419,241:     60  68  70
1720433419,241:     79  68  70
1720433419,241:     79  68  70
1720433419,241:     67  68  70
1720433419,241:     67  68  70
1720433419,241:     85  68  70
1720433419,271:    102  68  70
1720433419,271:    100  68  70
1720433419,271:     94  68  70
1720433419,271:    109  68  70
1720433419,271:    149  68  70
1720433419,271:    179  68  70
1720433419,271:    174  68  70
1720433419,271:    151  68  70
1720433419,271:    148  68  70
1720433419,271:    171  68  70
1720433419,271:    187  68  70
1720433419,271:    165  68  70
1720433419,271:    123  68  70
1720433419,271:    110  68  70
1720433419,271:    145  68  70
1720433419,302:    189  68  70
1720433419,302:    189  68  70
1720433419,302:    143  68  70
1720433419,302:     99  68  70
1720433419,302:     97  68  70
1720433419,302:    120  68  70
1720433419,302:    122  68  70
1720433419,302:     81  68  70
1720433419,302:     29  68  70
1720433419,302:      8  68  70
1720433419,302:     23  68  70
1720433419,302:     40  68  70
1720433419,302:     33  68  70
1720433419,302:     13  68  70
1720433419,302:      9  68  70
1720433419,333:     35  68  70
1720433419,333:     71  68  70
1720433419,333:     92  68  70
1720433419,333:     95  68  70
1720433419,333:    101  68  70
1720433419,333:    117  68  70
1720433419,333:    129  68  70
1720433419,333:    122  68  70
1720433419,333:    102  68  70
1720433419,333:     86  68  70
1720433419,333:     83  68  70
1720433419,333:     84  68  70
1720433419,333:     75  68  70
1720433419,333:     59  68  70
1720433419,333:     53  68  70
1720433419,363:     64  68  70
1720433419,363:     75  68  70
1720433419,363:     68  68  70
1720433419,363:     43  68  70
1720433419,363:     15  68  70
1720433419,363:     -6  68  70
1720433419,363:    -24  68  70
1720433419,363:    -51  68  70
1720433419,363:    -81  68  70
1720433419,363:   -103  68  70
1720433419,363:   -115  68  70
1720433419,363:   -133  68  70
1720433419,363:   -168  68  70
1720433419,363:   -205  68  70
1720433419,363:   -213  68  70
1720433419,395:   -181  68  70
1720433419,395:   -131  68  70
1720433419,395:   -103  68  70
1720433419,395:   -102  68  70
1720433419,395:    -97  68  70
1720433419,395:    -59  68  70
1720433419,395:      3  68  70
1720433419,395:     46  68  70
1720433419,395:     47  68  70
1720433419,395:     27  68  70
1720433419,395:     23  68  70
1720433419,395:     49  68  70
1720433419,395:     85  68  70
1720433419,395:    109  68  70
1720433419,395:    120  68  70
1720433419,427:    141  68  70
1720433419,427:    183  68  70
1720433419,427:    242  68  70
1720433419,427:    299  68  70
1720433419,427:    337  68  70
1720433419,427:    346  68  70
1720433419,427:    327  68  70
1720433419,427:    298  68  70
1720433419,427:    278  68  70
1720433419,427:    270  68  70
1720433419,427:    259  68  70
1720433419,427:    223  68  70
1720433419,427:    164  68  70
1720433419,427:    106  68  70
1720433419,427:     75  68  70
1720433419,427:     67  68  70
1720433419,427:     65  68  70
1720433419,427:     57  68  70
1720433419,427:     47  68  70
1720433419,427:     49  68  70
1720433419,427:     64  68  70
1720433419,427:     82  68  70
1720433419,427:     89  68  70
1720433419,457:     81  68  70
1720433419,457:     70  68  70
1720433419,457:     65  68  70
1720433419,457:     67  68  70
1720433419,457:     69  68  70
1720433419,457:     61  68  70
1720433419,457:     45  68  70
1720433419,457:     34  68  70
1720433419,457:     36  68  70
1720433419,457:     46  68  70
1720433419,457:     51  68  70
1720433419,457:     40  68  70
1720433419,457:     17  68  70
1720433419,457:     -4  68  70
1720433419,457:    -11  68  70
1720433419,488:     -9  68  70
1720433419,488:    -10  68  70
1720433419,488:    -13  68  70
1720433419,488:    -11  68  70
1720433419,488:     -2  68  70
1720433419,488:      5  68  70
1720433419,488:     -2  68  70
1720433419,519:    -24  68  70
1720433419,519:    -52  68  70
1720433419,519:    -67  68  70
1720433419,519:    -63  68  70
1720433419,519:    -43  68  70
1720433419,519:    -17  68  70
1720433419,519:      4  68  70
1720433419,519:     13  68  70
1720433419,519:     12  68  70
1720433419,519:     15  68  70
1720433419,519:     36  68  70
1720433419,519:     70  68  70
1720433419,519:     97  68  70
1720433419,519:     97  68  70
1720433419,519:     75  68  70
1720433419,519:     58  68  70
1720433419,519:     66  68  70
1720433419,519:     86  68  70
1720433419,519:     89  68  70
1720433419,519:     65  68  70
1720433419,519:     36  68  70
1720433419,519:     24  68  70
1720433419,519:     28  68  70
1720433419,550:     27  68  70
1720433419,550:     13  68  70
1720433419,550:      4  68  70
1720433419,550:     17  68  70
1720433419,550:     42  68  70
1720433419,550:     50  68  70
1720433419,550:     34  68  70
1720433419,550:     17  68  70
1720433419,550:     21  68  70
1720433419,550:     45  68  70
1720433419,550:     67  68  70
1720433419,550:     79  68  70
1720433419,550:     95  68  70
1720433419,550:    130  68  70
1720433419,550:    173  68  70
1720433419,582:    196  68  70
1720433419,582:    194  68  70
1720433419,582:    187  68  70
1720433419,582:    191  68  70
1720433419,582:    198  68  70
1720433419,582:    188  68  70
1720433419,582:    162  68  70
1720433419,582:    149  68  70
1720433419,582:    168  68  70
1720433419,582:    202  68  70
1720433419,582:    214  68  70
1720433419,582:    192  68  70
1720433419,582:    165  68  70
1720433419,582:    162  68  70
1720433419,582:    170  68  70
1720433419,614:    153  68  70
1720433419,614:    103  68  70
1720433419,614:     54  68  70
1720433419,614:     46  68  70
1720433419,614:     68  68  70
1720433419,614:     73  68  70
1720433419,614:     36  68  70
1720433419,614:     -9  68  70
1720433419,614:     -7  68  70
1720433419,614:     43  68  70
1720433419,614:     90  68  70
1720433419,614:     96  68  70
1720433419,614:     78  68  70
1720433419,614:     93  68  70
1720433419,614:    151  68  70
1720433419,614:    194  68  70
1720433419,614:    175  68  70
1720433419,614:    117  68  70
1720433419,614:     92  68  70
1720433419,614:    125  68  70
1720433419,614:    155  68  70
1720433419,614:    115  68  70
1720433419,646:     26  68  70
1720433419,646:    -15  68  70
1720433419,646:     75  68  70
1720433419,646:    282  68  70
1720433419,646:    550  68  70
1720433419,646:    906  68  70
1720433419,646:   1487  68  70
1720433419,646:   2387  68  70
1720433419,646:   3480  68  70
1720433419,646:   4455  68  70
1720433419,646:   5065  68  70
1720433419,646:   5359  68  70
1720433419,646:   5584  68  70
1720433419,646:   5838  68  70
1720433419,646:   5855  68  70
1720433419,677:   5212  73  70
1720433419,677:   3789  73  70
1720433419,677:   1975  73  70
1720433419,677:    372  73  70
1720433419,677:   -704  73  70
1720433419,677:  -1405  73  70
1720433419,677:  -2053  73  70
1720433419,677:  -2742  73  70
1720433419,707:  -3257  73  70
1720433419,707:  -3341  73  70
1720433419,707:  -2972  73  70
1720433419,707:  -2365  73  70
1720433419,707:  -1781  73  70
1720433419,707:  -1369  73  70
1720433419,707:  -1143  73  70
1720433419,707:  -1048  73  70
1720433419,707:  -1014  73  70
1720433419,707:   -975  73  70
1720433419,707:   -905  73  70
1720433419,707:   -833  73  70
1720433419,707:   -802  73  70
1720433419,707:   -823  73  70
1720433419,707:   -863  73  70
1720433419,707:   -883  73  70
1720433419,707:   -880  73  70
1720433419,707:   -876  73  70
1720433419,707:   -875  73  70
1720433419,707:   -869  73  70
1720433419,707:   -862  73  70
1720433419,707:   -877  73  70
1720433419,738:   -928  73  70
1720433419,738:   -992  73  70
1720433419,738:  -1021  73  70
1720433419,738:   -992  73  70
1720433419,738:   -924  73  70
1720433419,738:   -861  73  70
1720433419,738:   -823  73  70
1720433419,738:   -798  73  70
1720433419,738:   -768  73  70
1720433419,738:   -743  73  70
1720433419,738:   -743  73  70
1720433419,738:   -763  73  70
1720433419,738:   -766  73  70
1720433419,738:   -723  73  70
1720433419,738:   -646  73  70
1720433419,769:   -578  73  70
1720433419,769:   -547  73  70
1720433419,769:   -545  73  70
1720433419,769:   -544  73  70
1720433419,769:   -531  73  70
1720433419,769:   -522  73  70
1720433419,769:   -524  73  70
1720433419,769:   -526  73  70
1720433419,769:   -510  73  70
1720433419,769:   -474  73  70
1720433419,769:   -436  73  70
1720433419,769:   -414  73  70
1720433419,769:   -403  73  70
1720433419,769:   -384  73  70
1720433419,769:   -353  73  70
1720433419,801:   -326  73  70
1720433419,801:   -313  73  70
1720433419,801:   -307  73  70
1720433419,801:   -294  73  70
1720433419,801:   -270  73  70
1720433419,801:   -249  73  70
1720433419,801:   -238  73  70
1720433419,801:   -229  73  70
1720433419,801:   -208  73  70
1720433419,801:   -177  73  70
1720433419,801:   -154  73  70
1720433419,801:   -146  73  70
1720433419,801:   -141  73  70
1720433419,801:   -120  73  70
1720433419,801:    -88  73  70
1720433419,833:    -63  73  70
1720433419,833:    -58  73  70
1720433419,833:    -57  73  70
1720433419,833:    -34  73  70
1720433419,833:     12  73  70
1720433419,833:     53  73  70
1720433419,833:     68  73  70
1720433419,833:     62  73  70
1720433419,833:     62  73  70
1720433419,833:     81  73  70
1720433419,833:    108  73  70
1720433419,833:    117  73  70
1720433419,833:    103  73  70
1720433419,833:     88  73  70
1720433419,833:     95  73  70
1720433419,864:    123  73  70
1720433419,864:    156  73  70
1720433419,864:    179  73  70
1720433419,864:    189  73  70
1720433419,864:    191  73  70
1720433419,864:    186  73  70
1720433419,864:    176  73  70
1720433419,864:    169  73  70
1720433419,864:    168  73  70
1720433419,864:    168  73  70
1720433419,864:    149  73  70
1720433419,864:    102  73  70
1720433419,864:     47  73  70
1720433419,864:     14  73  70
1720433419,864:     14  73  70
1720433419,894:     30  73  70
1720433419,894:     33  73  70
1720433419,894:     15  73  70
1720433419,894:     -6  73  70
1720433419,894:    -12  73  70
1720433419,894:     -5  73  70
1720433419,894:     -4  73  70
1720433419,894:    -23  73  70
1720433419,894:    -56  73  70
1720433419,894:    -92  73  70
1720433419,894:   -119  73  70
1720433419,894:   -140  73  70
1720433419,894:   -157  73  70
1720433419,894:   -167  73  70
1720433419,894:   -164  73  70
1720433419,925:   -153  73  70
1720433419,925:   -151  73  70
1720433419,925:   -170  73  70
1720433419,925:   -208  73  70
1720433419,925:   -246  73  70
1720433419,925:   -270  73  70
1720433419,925:   -284  73  70
1720433419,925:   -300  73  70
1720433419,925:   -321  73  70
1720433419,925:   -335  73  70
1720433419,925:   -333  73  70
1720433419,925:   -324  73  70
1720433419,925:   -324  73  70
1720433419,925:   -337  73  70
1720433419,925:   -350  73  70
1720433419,956:   -351  73  70
1720433419,956:   -351  73  70
1720433419,956:   -367  73  70
1720433419,956:   -399  73  70
1720433419,956:   -420  73  70
1720433419,956:   -407  73  70
1720433419,956:   -372  73  70
1720433419,956:   -348  73  70
1720433419,956:   -350  73  70
1720433419,956:   -357  73  70
1720433419,956:   -343  73  70
1720433419,956:   -310  73  70
1720433419,956:   -287  73  70
1720433419,956:   -285  73  70
1720433419,956:   -289  73  70
1720433419,988:   -274  73  70
1720433419,988:   -246  73  70
1720433419,988:   -234  73  70
1720433419,988:   -245  73  70
1720433419,988:   -258  73  70
1720433419,988:   -253  73  70
1720433419,988:   -233  73  70
1720433419,988:   -217  73  70
1720433419,988:   -206  73  70
1720433419,988:   -180  73  70
1720433419,988:   -130  73  70
1720433419,988:    -75  73  70
1720433419,988:    -49  73  70
1720433419,988:    -54  73  70
1720433419,988:    -62  73  70
1720433419,988:    -46  73  70
1720433419,988:    -14  73  70
1720433419,988:      5  73  70
1720433419,988:     -4  73  70
1720433419,988:    -24  73  70
1720433419,988:    -32  73  70
1720433419,988:    -23  73  70
1720433419,988:    -14  73  70
1720433420,019:    -18  73  70
1720433420,019:    -31  73  70
1720433420,019:    -39  73  70
1720433420,019:    -37  73  70
1720433420,019:    -31  73  70
1720433420,019:    -30  73  70
1720433420,019:    -32  73  70
1720433420,019:    -24  73  70
1720433420,019:     -5  73  70
1720433420,019:     10  73  70
1720433420,019:      7  73  70
1720433420,019:     -7  73  70
1720433420,051:    -16  73  70
1720433420,051:    -11  73  70
1720433420,051:      2  73  70
1720433420,051:      9  73  70
1720433420,051:     10  73  70
1720433420,051:     19  73  70
1720433420,051:     42  73  70
1720433420,051:     68  73  70
1720433420,051:     85  73  70
1720433420,051:     91  73  70
1720433420,051:     90  73  70
1720433420,051:     83  73  70
1720433420,051:     68  73  70
1720433420,051:     46  73  70
1720433420,051:     29  73  70
1720433420,082:     22  73  70
1720433420,082:     16  73  70
1720433420,082:     -4  73  70
1720433420,082:    -29  73  70
1720433420,082:    -32  73  70
1720433420,082:     -2  73  70
1720433420,082:     44  73  70
1720433420,082:     73  73  70
1720433420,082:     76  73  70
1720433420,082:     73  73  70
1720433420,082:     91  73  70
1720433420,082:    126  73  70
1720433420,082:    149  73  70
1720433420,082:    137  73  70
1720433420,082:    100  73  70
1720433420,114:     63  73  70
1720433420,114:     45  73  70
1720433420,114:     41  73  70
1720433420,114:     32  73  70
1720433420,114:     10  73  70
1720433420,114:    -17  73  70
1720433420,114:    -31  73  70
1720433420,114:    -22  73  70
1720433420,114:     -4  73  70
1720433420,114:      3  73  70
1720433420,114:     -8  73  70
1720433420,114:    -31  73  70
1720433420,114:    -44  73  70
1720433420,114:    -38  73  70
1720433420,114:    -23  73  70
1720433420,146:    -11  73  70
1720433420,146:     -5  73  70
1720433420,146:     -3  73  70
1720433420,146:     -5  73  70
1720433420,146:    -12  73  70
1720433420,146:    -19  73  70
1720433420,146:    -14  73  70
1720433420,146:      2  73  70
1720433420,146:     13  73  70
1720433420,146:      1  73  70
1720433420,146:    -29  73  70
1720433420,146:    -45  73  70
1720433420,146:    -28  73  70
1720433420,146:      6  73  70
1720433420,146:     23  73  70
1720433420,178:      3  73  70
1720433420,178:    -33  73  70
1720433420,178:    -51  73  70
1720433420,178:    -35  73  70
1720433420,178:      3  73  70
1720433420,178:     36  73  70
1720433420,178:     54  73  70
1720433420,178:     65  73  70
1720433420,178:     76  73  70
1720433420,178:     88  73  70
1720433420,178:     97  73  70
1720433420,178:    101  73  70
1720433420,178:     95  73  70
1720433420,178:     79  73  70
1720433420,178:     55  73  70
1720433420,178:     38  73  70
1720433420,178:     39  73  70
1720433420,178:     56  73  70
1720433420,178:     67  73  70
1720433420,178:     57  73  70
1720433420,178:     38  73  70
1720433420,178:     31  73  70
1720433420,209:     44  73  70
1720433420,209:     57  73  70
1720433420,209:     45  73  70
1720433420,209:     11  73  70
1720433420,209:    -12  73  70
1720433420,209:     -2  73  70
1720433420,209:     23  73  70
1720433420,209:     31  73  70
1720433420,209:     11  73  70
1720433420,209:    -10  73  70
1720433420,209:     -5  73  70
1720433420,209:     21  73  70
1720433420,209:     39  73  70
1720433420,209:     32  73  70
1720433420,209:     18  73  70
1720433420,240:     28  73  70
1720433420,240:     64  73  70
1720433420,240:     95  73  70
1720433420,240:     94  73  70
1720433420,240:     68  73  70
1720433420,240:     46  73  70
1720433420,240:     49  73  70
1720433420,240:     67  73  70
1720433420,240:     77  73  70
1720433420,240:     72  73  70
1720433420,240:     67  73  70
1720433420,240:     83  73  70
1720433420,240:    119  73  70
1720433420,240:    155  73  70
1720433420,240:    182  73  70
1720433420,271:    205  73  70
1720433420,271:    232  73  70
1720433420,271:    261  73  70
1720433420,271:    273  73  70
1720433420,271:    263  73  70
1720433420,271:    244  73  70
1720433420,271:    233  73  70
1720433420,271:    228  73  70
1720433420,271:    213  73  70
1720433420,271:    182  73  70
1720433420,271:    145  73  70
1720433420,271:    122  73  70
1720433420,271:    118  73  70
1720433420,271:    119  73  70
1720433420,271:    109  73  70
1720433420,302:     86  73  70
1720433420,302:     58  73  70
1720433420,302:     30  73  70
1720433420,302:      0  73  70
1720433420,302:    -37  73  70
1720433420,302:    -82  73  70
1720433420,302:   -130  73  70
1720433420,302:   -171  73  70
1720433420,302:   -199  73  70
1720433420,302:   -211  73  70
1720433420,302:   -211  73  70
1720433420,302:   -205  73  70
1720433420,302:   -203  73  70
1720433420,302:   -205  73  70
1720433420,302:   -206  73  70
1720433420,333:   -203  73  70
1720433420,333:   -203  73  70
1720433420,333:   -213  73  70
1720433420,333:   -229  73  70
1720433420,333:   -237  73  70
1720433420,333:   -224  73  70
1720433420,333:   -198  73  70
1720433420,333:   -179  73  70
1720433420,333:   -175  73  70
1720433420,333:   -175  73  70
1720433420,333:   -163  73  70
1720433420,333:   -143  73  70
1720433420,333:   -133  73  70
1720433420,333:   -147  73  70
1720433420,333:   -173  73  70
1720433420,363:   -186  73  70
1720433420,363:   -173  73  70
1720433420,363:   -153  73  70
1720433420,363:   -151  73  70
1720433420,363:   -172  73  70
1720433420,363:   -191  73  70
1720433420,363:   -187  73  70
1720433420,363:   -161  73  70
1720433420,363:   -130  73  70
1720433420,363:   -110  73  70
1720433420,363:   -100  73  70
1720433420,363:    -81  73  70
1720433420,363:    -42  73  70
1720433420,363:     14  73  70
1720433420,363:     76  73  70
1720433420,363:    117  73  70
1720433420,363:    122  73  70
1720433420,363:    110  73  70
1720433420,363:    124  73  70
1720433420,363:    191  73  70
1720433420,363:    265  73  70
1720433420,363:    276  73  70
1720433420,363:    212  73  70
1720433420,393:    152  73  70
1720433420,393:    201  73  70
1720433420,393:    389  73  70
1720433420,393:    657  73  70
1720433420,393:    963  73  70
1720433420,393:   1387  73  70
1720433420,393:   2071  73  70
1720433420,393:   3022  73  70
1720433420,393:   4015  73  70
1720433420,393:   4739  73  70
1720433420,393:   5070  73  70
1720433420,393:   5174  73  70
1720433420,393:   5276  73  70
1720433420,393:   5334  73  70
1720433420,393:   4988  73  70
1720433420,424:   3910  81  73
1720433420,424:   2195  81  73
1720433420,424:    373  81  73
1720433420,424:  -1015  81  73
1720433420,424:  -1841  81  73
1720433420,424:  -2384  81  73
1720433420,424:  -2941  81  73
1720433420,455:  -3492  81  73
1720433420,455:  -3761  81  73
1720433420,455:  -3541  81  73
1720433420,455:  -2917  81  73
1720433420,455:  -2176  81  73
1720433420,455:  -1567  81  73
1720433420,455:  -1184  81  73
1720433420,455:   -985  81  73
1720433420,455:   -903  81  73
1720433420,455:   -867  81  73
1720433420,455:   -808  81  73
1720433420,455:   -694  81  73
1720433420,455:   -547  81  73
1720433420,455:   -433  81  73
1720433420,455:   -387  81  73
1720433420,455:   -382  81  73
1720433420,455:   -356  81  73
1720433420,455:   -281  81  73
1720433420,455:   -186  81  73
1720433420,455:   -121  81  73
1720433420,455:   -119  81  73
1720433420,455:   -169  81  73
1720433420,455:   -239  81  73
1720433420,487:   -300  81  73
1720433420,487:   -337  81  73
1720433420,487:   -333  81  73
1720433420,487:   -273  81  73
1720433420,487:   -160  81  73
1720433420,487:    -38  81  73
1720433420,487:     33  81  73
1720433420,487:     32  81  73
1720433420,487:    -10  81  73
1720433420,487:    -45  81  73
1720433420,487:    -61  81  73
1720433420,487:    -79  81  73
1720433420,487:   -109  81  73
1720433420,487:   -126  81  73
1720433420,487:   -101  81  73
1720433420,519:    -46  81  73
1720433420,519:     -6  81  73
1720433420,519:    -14  81  73
1720433420,519:    -47  81  73
1720433420,519:    -69  81  73
1720433420,519:    -67  81  73
1720433420,519:    -62  81  73
1720433420,519:    -71  81  73
1720433420,519:    -79  81  73
1720433420,519:    -61  81  73
1720433420,519:    -21  81  73
1720433420,519:      8  81  73
1720433420,519:      8  81  73
1720433420,519:      2  81  73
1720433420,519:     26  81  73
1720433420,551:     84  81  73
1720433420,551:    145  81  73
1720433420,551:    181  81  73
1720433420,551:    196  81  73
1720433420,551:    215  81  73
1720433420,551:    249  81  73
1720433420,551:    283  81  73
1720433420,551:    298  81  73
1720433420,551:    294  81  73
1720433420,551:    284  81  73
1720433420,551:    274  81  73
1720433420,551:    264  81  73
1720433420,551:    257  81  73
1720433420,551:    267  81  73
1720433420,551:    297  81  73
1720433420,582:    332  81  73
1720433420,582:    348  81  73
1720433420,582:    337  81  73
1720433420,582:    324  81  73
1720433420,582:    331  81  73
1720433420,582:    350  81  73
1720433420,582:    357  81  73
1720433420,582:    342  81  73
1720433420,582:    324  81  73
1720433420,582:    332  81  73
1720433420,582:    370  81  73
1720433420,582:    409  81  73
1720433420,582:    423  81  73
1720433420,582:    413  81  73
1720433420,582:    406  81  73
1720433420,614:    418  81  73
1720433420,614:    439  81  73
1720433420,614:    450  81  73
1720433420,614:    442  81  73
1720433420,614:    429  81  73
1720433420,614:    429  81  73
1720433420,614:    441  81  73
1720433420,614:    447  81  73
1720433420,614:    435  81  73
1720433420,614:    413  81  73
1720433420,614:    392  81  73
1720433420,614:    374  81  73
1720433420,614:    351  81  73
1720433420,614:    318  81  73
1720433420,614:    290  81  73
1720433420,646:    283  81  73
1720433420,646:    294  81  73
1720433420,646:    299  81  73
1720433420,646:    284  81  73
1720433420,646:    253  81  73
1720433420,646:    225  81  73
1720433420,646:    205  81  73
1720433420,646:    188  81  73
1720433420,646:    162  81  73
1720433420,646:    130  81  73
1720433420,646:    103  81  73
1720433420,646:     79  81  73
1720433420,646:     50  81  73
1720433420,646:     14  81  73
1720433420,646:    -18  81  73
1720433420,677:    -37  81  73
1720433420,677:    -52  81  73
1720433420,677:    -81  81  73
1720433420,677:   -130  81  73
1720433420,677:   -182  81  73
1720433420,677:   -217  81  73
1720433420,677:   -235  81  73
1720433420,677:   -258  81  73
1720433420,677:   -304  81  73
1720433420,677:   -363  81  73
1720433420,677:   -407  81  73
1720433420,677:   -420  81  73
1720433420,677:   -410  81  73
1720433420,677:   -405  81  73
1720433420,677:   -422  81  73
1720433420,677:   -451  81  73
1720433420,677:   -467  81  73
1720433420,677:   -461  81  73
1720433420,677:   -446  81  73
1720433420,677:   -443  81  73
1720433420,677:   -459  81  73
1720433420,677:   -484  81  73
1720433420,709:   -501  81  73
1720433420,709:   -507  81  73
1720433420,709:   -505  81  73
1720433420,709:   -501  81  73
1720433420,709:   -491  81  73
1720433420,709:   -477  81  73
1720433420,709:   -466  81  73
1720433420,709:   -463  81  73
1720433420,709:   -463  81  73
1720433420,709:   -457  81  73
1720433420,709:   -438  81  73
1720433420,709:   -411  81  73
1720433420,709:   -386  81  73
1720433420,709:   -371  81  73
1720433420,709:   -362  81  73
1720433420,740:   -353  81  73
1720433420,740:   -339  81  73
1720433420,740:   -322  81  73
1720433420,740:   -305  81  73
1720433420,740:   -296  81  73
1720433420,740:   -293  81  73
1720433420,740:   -289  81  73
1720433420,740:   -275  81  73
1720433420,740:   -246  81  73
1720433420,740:   -208  81  73
1720433420,740:   -173  81  73
1720433420,740:   -150  81  73
1720433420,740:   -137  81  73
1720433420,740:   -127  81  73
1720433420,740:   -113  81  73
1720433420,772:    -97  81  73
1720433420,772:    -87  81  73
1720433420,772:    -85  81  73
1720433420,772:    -88  81  73
1720433420,772:    -85  81  73
1720433420,772:    -69  81  73
1720433420,772:    -47  81  73
1720433420,772:    -31  81  73
1720433420,772:    -29  81  73
1720433420,772:    -38  81  73
1720433420,772:    -49  81  73
1720433420,772:    -56  81  73
1720433420,772:    -58  81  73
1720433420,772:    -56  81  73
1720433420,772:    -48  81  73
1720433420,804:    -36  81  73
1720433420,804:    -30  81  73
1720433420,804:    -40  81  73
1720433420,804:    -54  81  73
1720433420,804:    -50  81  73
1720433420,804:    -21  81  73
1720433420,804:     20  81  73
1720433420,804:     42  81  73
1720433420,804:     35  81  73
1720433420,804:     17  81  73
1720433420,804:     15  81  73
1720433420,804:     30  81  73
1720433420,804:     40  81  73
1720433420,804:     29  81  73
1720433420,804:     11  81  73
1720433420,835:      7  81  73
1720433420,835:     22  81  73
1720433420,835:     42  81  73
1720433420,835:     54  81  73
1720433420,835:     67  81  73
1720433420,835:     97  81  73
1720433420,835:    138  81  73
1720433420,835:    163  81  73
1720433420,835:    153  81  73
1720433420,835:    121  81  73
1720433420,835:     90  81  73
1720433420,835:     73  81  73
1720433420,835:     63  81  73
1720433420,835:     49  81  73
1720433420,835:     32  81  73
1720433420,865:     25  81  73
1720433420,865:     27  81  73
1720433420,865:     30  81  73
1720433420,865:     31  81  73
1720433420,865:     37  81  73
1720433420,865:     54  81  73
1720433420,865:     69  81  73
1720433420,865:     66  81  73
1720433420,865:     41  81  73
1720433420,865:     19  81  73
1720433420,865:     25  81  73
1720433420,865:     58  81  73
1720433420,865:     87  81  73
1720433420,865:     84  81  73
1720433420,865:     57  81  73
1720433420,865:     36  81  73
1720433420,865:     41  81  73
1720433420,865:     54  81  73
1720433420,865:     47  81  73
1720433420,865:     15  81  73
1720433420,865:    -14  81  73
1720433420,865:    -12  81  73
1720433420,865:     16  81  73
1720433420,897:     36  81  73
1720433420,897:     29  81  73
1720433420,897:     11  81  73
1720433420,897:      9  81  73
1720433420,897:     32  81  73
1720433420,897:     53  81  73
1720433420,897:     50  81  73
1720433420,929:     33  81  73
1720433420,929:     26  81  73
1720433420,929:     38  81  73
1720433420,929:     49  81  73
1720433420,929:     39  81  73
1720433420,929:     14  81  73
1720433420,929:      1  81  73
1720433420,929:     15  81  73
1720433420,929:     48  81  73
1720433420,929:     78  81  73
1720433420,929:    101  81  73
1720433420,929:    128  81  73
1720433420,929:    165  81  73
1720433420,929:    204  81  73
1720433420,929:    234  81  73
1720433420,961:    254  81  73
1720433420,961:    265  81  73
1720433420,961:    270  81  73
1720433420,961:    265  81  73
1720433420,961:    250  81  73
1720433420,961:    235  81  73
1720433420,961:    230  81  73
1720433420,961:    233  81  73
1720433420,961:    230  81  73
1720433420,961:    216  81  73
1720433420,961:    196  81  73
1720433420,961:    181  81  73
1720433420,961:    176  81  73
1720433420,961:    181  81  73
1720433420,961:    193  81  73
1720433420,961:    215  81  73
1720433420,961:    246  81  73
1720433420,961:    276  81  73
1720433420,961:    297  81  73
1720433420,961:    307  81  73
1720433420,961:    317  81  73
1720433420,961:    336  81  73
1720433420,961:    357  81  73
1720433420,992:    369  81  73
1720433420,992:    365  81  73
1720433420,992:    351  81  73
1720433420,992:    338  81  73
1720433420,992:    333  81  73
1720433420,992:    327  81  73
1720433420,992:    312  81  73
1720433420,992:    285  81  73
1720433420,992:    250  81  73
1720433420,992:    213  81  73
1720433420,992:    175  81  73
1720433420,992:    138  81  73
1720433420,992:    107  81  73
1720433420,992:     85  81  73
1720433420,992:     74  81  73
1720433421,022:     71  81  73
1720433421,022:     73  81  73
1720433421,022:     79  81  73
1720433421,022:     87  81  73
1720433421,022:     91  81  73
1720433421,022:     89  81  73
1720433421,022:     90  81  73
1720433421,022:    103  81  73
1720433421,022:    125  81  73
1720433421,022:    147  81  73
1720433421,022:    155  81  73
1720433421,022:    147  81  73
1720433421,054:    134  81  73
1720433421,054:    125  81  73
1720433421,054:    120  81  73
1720433421,054:    119  81  73
1720433421,054:    119  81  73
1720433421,054:    119  81  73
1720433421,054:    117  81  73
1720433421,054:    119  81  73
1720433421,054:    128  81  73
1720433421,054:    145  81  73
1720433421,054:    161  81  73
1720433421,054:    166  81  73
1720433421,054:    161  81  73
1720433421,054:    160  81  73
1720433421,054:    167  81  73
1720433421,054:    171  81  73
1720433421,054:    162  81  73
1720433421,054:    145  81  73
1720433421,054:    134  81  73
1720433421,054:    135  81  73
1720433421,054:    137  81  73
1720433421,054:    131  81  73
1720433421,054:    127  81  73
1720433421,085:    142  81  73
1720433421,085:    182  81  73
1720433421,085:    229  81  73
1720433421,085:    266  81  73
1720433421,085:    300  81  73
1720433421,085:    341  81  73
1720433421,085:    369  81  73
1720433421,085:    358  81  73
1720433421,085:    317  81  73
1720433421,085:    288  81  73
1720433421,085:    301  81  73
1720433421,085:    321  81  73
1720433421,085:    288  81  73
1720433421,085:    206  81  73
1720433421,085:    160  81  73
1720433421,115:    239  81  73
1720433421,115:    468  81  73
1720433421,115:    816  81  73
1720433421,115:   1302  81  73
1720433421,115:   2019  81  73
1720433421,115:   3036  81  73
1720433421,115:   4268  81  73
1720433421,115:   5475  81  73
1720433421,115:   6427  81  73
1720433421,115:   7086  81  73
1720433421,115:   7585  81  73
1720433421,115:   8009  81  73
1720433421,115:   8189  81  73
1720433421,115:   7760  81  73
1720433421,115:   6487  81  73
1720433421,147:   4557  85  77
1720433421,147:   2533  85  77
1720433421,147:    935  85  77
1720433421,147:   -133  85  77
1720433421,147:   -956  85  77
1720433421,147:  -1812  85  77
1720433421,147:  -2643  85  77
1720433421,147:  -3109  85  77
1720433421,147:  -2965  85  77
1720433421,147:  -2325  85  77
1720433421,147:  -1563  85  77
1720433421,147:  -1017  85  77
1720433421,147:   -780  85  77
1720433421,147:   -741  85  77
1720433421,147:   -754  85  77
1720433421,179:   -744  85  77
1720433421,179:   -715  85  77
1720433421,179:   -695  85  77
1720433421,179:   -706  85  77
1720433421,179:   -743  85  77
1720433421,179:   -783  85  77
1720433421,179:   -799  85  77
1720433421,179:   -780  85  77
1720433421,179:   -735  85  77
1720433421,179:   -673  85  77
1720433421,179:   -606  85  77
1720433421,179:   -560  85  77
1720433421,179:   -568  85  77
1720433421,179:   -639  85  77
1720433421,179:   -735  85  77
1720433421,210:   -794  85  77
1720433421,210:   -776  85  77
1720433421,210:   -690  85  77
1720433421,210:   -580  85  77
1720433421,210:   -485  85  77
1720433421,210:   -423  85  77
1720433421,210:   -396  85  77
1720433421,210:   -408  85  77
1720433421,210:   -449  85  77
1720433421,210:   -494  85  77
1720433421,210:   -515  85  77
1720433421,210:   -491  85  77
1720433421,210:   -430  85  77
1720433421,210:   -358  85  77
1720433421,210:   -300  85  77
1720433421,241:   -263  85  77
1720433421,241:   -243  85  77
1720433421,241:   -239  85  77
1720433421,241:   -246  85  77
1720433421,241:   -257  85  77
1720433421,241:   -262  85  77
1720433421,241:   -257  85  77
1720433421,241:   -248  85  77
1720433421,241:   -242  85  77
1720433421,241:   -240  85  77
1720433421,241:   -233  85  77
1720433421,241:   -214  85  77
1720433421,241:   -195  85  77
1720433421,241:   -186  85  77
1720433421,241:   -188  85  77
1720433421,272:   -187  85  77
1720433421,272:   -175  85  77
1720433421,272:   -157  85  77
1720433421,272:   -144  85  77
1720433421,272:   -135  85  77
1720433421,272:   -116  85  77
1720433421,272:    -80  85  77
1720433421,272:    -41  85  77
1720433421,272:    -18  85  77
1720433421,272:    -10  85  77
1720433421,272:      4  85  77
1720433421,272:     37  85  77
1720433421,272:     79  85  77
1720433421,272:    106  85  77
1720433421,272:    109  85  77
1720433421,303:    102  85  77
1720433421,303:    113  85  77
1720433421,303:    151  85  77
1720433421,303:    199  85  77
1720433421,303:    234  85  77
1720433421,303:    247  85  77
1720433421,303:    251  85  77
1720433421,303:    262  85  77
1720433421,303:    285  85  77
1720433421,303:    307  85  77
1720433421,303:    315  85  77
1720433421,303:    314  85  77
1720433421,303:    316  85  77
1720433421,303:    326  85  77
1720433421,303:    338  85  77
1720433421,303:    343  85  77
1720433421,303:    343  85  77
1720433421,303:    340  85  77
1720433421,303:    335  85  77
1720433421,303:    323  85  77
1720433421,303:    305  85  77
1720433421,303:    291  85  77
1720433421,334:    286  85  77
1720433421,334:    278  85  77
1720433421,334:    255  85  77
1720433421,334:    224  85  77
1720433421,334:    205  85  77
1720433421,334:    204  85  77
1720433421,334:    211  85  77
1720433421,334:    206  85  77
1720433421,334:    195  85  77
1720433421,334:    198  85  77
1720433421,334:    222  85  77
1720433421,334:    247  85  77
1720433421,334:    248  85  77
1720433421,334:    227  85  77
1720433421,334:    208  85  77
1720433421,365:    209  85  77
1720433421,365:    226  85  77
1720433421,365:    239  85  77
1720433421,365:    236  85  77
1720433421,365:    225  85  77
1720433421,365:    219  85  77
1720433421,365:    220  85  77
1720433421,365:    219  85  77
1720433421,365:    205  85  77
1720433421,365:    176  85  77
1720433421,365:    135  85  77
1720433421,365:     93  85  77
1720433421,365:     61  85  77
1720433421,365:     44  85  77
1720433421,365:     38  85  77
1720433421,396:     34  85  77
1720433421,396:     22  85  77
1720433421,396:      5  85  77
1720433421,396:     -2  85  77
1720433421,396:      7  85  77
1720433421,396:     17  85  77
1720433421,396:     14  85  77
1720433421,396:     -7  85  77
1720433421,427:    -26  85  77
1720433421,427:    -22  85  77
1720433421,427:     -2  85  77
1720433421,427:     11  85  77
1720433421,427:     -1  85  77
1720433421,427:    -22  85  77
1720433421,427:    -26  85  77
1720433421,427:    -11  85  77
1720433421,427:      4  85  77
1720433421,427:      3  85  77
1720433421,427:     -8  85  77
1720433421,427:     -4  85  77
1720433421,427:     22  85  77
1720433421,427:     47  85  77
1720433421,427:     49  85  77
1720433421,427:     28  85  77
1720433421,427:      9  85  77
1720433421,427:      6  85  77
1720433421,427:     14  85  77
1720433421,427:     18  85  77
1720433421,427:     15  85  77
1720433421,427:     16  85  77
1720433421,459:     33  85  77
1720433421,459:     59  85  77
1720433421,459:     82  85  77
1720433421,459:     95  85  77
1720433421,459:    109  85  77
1720433421,459:    127  85  77
1720433421,459:    140  85  77
1720433421,459:    133  85  77
1720433421,459:    109  85  77
1720433421,459:     90  85  77
1720433421,459:     95  85  77
1720433421,459:    119  85  77
1720433421,459:    131  85  77
1720433421,459:    116  85  77
1720433421,459:     89  85  77
1720433421,490:     80  85  77
1720433421,490:     97  85  77
1720433421,490:    119  85  77
1720433421,490:    121  85  77
1720433421,490:    105  85  77
1720433421,490:     95  85  77
1720433421,490:    107  85  77
1720433421,490:    130  85  77
1720433421,490:    140  85  77
1720433421,490:    132  85  77
1720433421,490:    121  85  77
1720433421,490:    119  85  77
1720433421,490:    123  85  77
1720433421,490:    121  85  77
1720433421,490:    113  85  77
1720433421,490:    115  85  77
1720433421,490:    135  85  77
1720433421,490:    158  85  77
1720433421,490:    158  85  77
1720433421,490:    136  85  77
1720433421,490:    118  85  77
1720433421,490:    127  85  77
1720433421,490:    157  85  77
1720433421,521:    176  85  77
1720433421,521:    164  85  77
1720433421,521:    138  85  77
1720433421,521:    131  85  77
1720433421,521:    156  85  77
1720433421,521:    187  85  77
1720433421,521:    197  85  77
1720433421,552:    186  85  77
1720433421,552:    177  85  77
1720433421,552:    185  85  77
1720433421,552:    200  85  77
1720433421,552:    203  85  77
1720433421,552:    198  85  77
1720433421,552:    202  85  77
1720433421,552:    219  85  77
1720433421,552:    226  85  77
1720433421,552:    205  85  77
1720433421,552:    169  85  77
1720433421,552:    152  85  77
1720433421,552:    166  85  77
1720433421,552:    191  85  77
1720433421,552:    197  85  77
1720433421,584:    188  85  77
1720433421,584:    189  85  77
1720433421,584:    208  85  77
1720433421,584:    223  85  77
1720433421,584:    210  85  77
1720433421,584:    180  85  77
1720433421,584:    160  85  77
1720433421,584:    159  85  77
1720433421,584:    159  85  77
1720433421,584:    140  85  77
1720433421,584:    114  85  77
1720433421,584:    114  85  77
1720433421,584:    151  85  77
1720433421,584:    197  85  77
1720433421,584:    220  85  77
1720433421,616:    215  85  77
1720433421,616:    207  85  77
1720433421,616:    213  85  77
1720433421,616:    223  85  77
1720433421,616:    220  85  77
1720433421,616:    202  85  77
1720433421,616:    188  85  77
1720433421,616:    188  85  77
1720433421,616:    194  85  77
1720433421,616:    190  85  77
1720433421,616:    177  85  77
1720433421,616:    171  85  77
1720433421,616:    181  85  77
1720433421,616:    195  85  77
1720433421,616:    195  85  77
1720433421,616:    177  85  77
1720433421,616:    151  85  77
1720433421,616:    137  85  77
1720433421,616:    131  85  77
1720433421,616:    118  85  77
1720433421,616:     92  85  77
1720433421,616:     62  85  77
1720433421,616:     43  85  77
1720433421,648:     42  85  77
1720433421,648:     49  85  77
1720433421,648:     52  85  77
1720433421,648:     50  85  77
1720433421,648:     56  85  77
1720433421,648:     77  85  77
1720433421,648:     99  85  77
1720433421,648:    104  85  77
1720433421,648:     83  85  77
1720433421,648:     50  85  77
1720433421,648:     28  85  77
1720433421,648:     27  85  77
1720433421,648:     35  85  77
1720433421,648:     38  85  77
1720433421,648:     38  85  77
1720433421,679:     49  85  77
1720433421,679:     76  85  77
1720433421,679:    114  85  77
1720433421,679:    150  85  77
1720433421,679:    182  85  77
1720433421,679:    214  85  77
1720433421,679:    244  85  77
1720433421,679:    263  85  77
1720433421,679:    266  85  77
1720433421,679:    266  85  77
1720433421,679:    275  85  77
1720433421,679:    287  85  77
1720433421,679:    286  85  77
1720433421,679:    267  85  77
1720433421,679:    251  85  77
1720433421,711:    257  85  77
1720433421,711:    285  85  77
1720433421,711:    312  85  77
1720433421,711:    327  85  77
1720433421,711:    341  85  77
1720433421,711:    368  85  77
1720433421,711:    402  85  77
1720433421,711:    423  85  77
1720433421,711:    423  85  77
1720433421,711:    414  85  77
1720433421,711:    408  85  77
1720433421,711:    404  85  77
1720433421,711:    390  85  77
1720433421,711:    364  85  77
1720433421,711:    342  85  77
1720433421,742:    333  85  77
1720433421,742:    328  85  77
1720433421,742:    310  85  77
1720433421,742:    281  85  77
1720433421,742:    251  85  77
1720433421,742:    223  85  77
1720433421,742:    190  85  77
1720433421,742:    146  85  77
1720433421,742:    104  85  77
1720433421,742:     79  85  77
1720433421,742:     74  85  77
1720433421,742:     69  85  77
1720433421,742:     47  85  77
1720433421,742:     20  85  77
1720433421,742:     10  85  77
1720433421,772:     25  85  77
1720433421,772:     42  85  77
1720433421,772:     36  85  77
1720433421,772:      7  85  77
1720433421,772:    -16  85  77
1720433421,772:     -9  85  77
1720433421,772:     16  85  77
1720433421,772:     26  85  77
1720433421,772:      9  85  77
1720433421,772:    -17  85  77
1720433421,772:    -24  85  77
1720433421,772:    -10  85  77
1720433421,772:     -1  85  77
1720433421,772:    -10  85  77
1720433421,772:    -20  85  77
1720433421,802:     -8  85  77
1720433421,802:     20  85  77
1720433421,802:     37  85  77
1720433421,802:     26  85  77
1720433421,802:      7  85  77
1720433421,802:      4  85  77
1720433421,802:     16  85  77
1720433421,802:     21  85  77
1720433421,802:      6  85  77
1720433421,802:    -13  85  77
1720433421,802:    -13  85  77
1720433421,802:      7  85  77
1720433421,802:     22  85  77
1720433421,802:     17  85  77
1720433421,802:      5  85  77
1720433421,833:     11  85  77
1720433421,833:     39  85  77
1720433421,833:     75  85  77
1720433421,833:    111  85  77
1720433421,833:    158  85  77
1720433421,833:    217  85  77
1720433421,833:    260  85  77
1720433421,833:    261  85  77
1720433421,833:    233  85  77
1720433421,833:    213  85  77
1720433421,833:    201  85  77
1720433421,833:    139  85  77
1720433421,833:    -12  85  77
1720433421,833:   -199  85  77
1720433421,833:   -300  85  77
1720433421,864:   -216  85  77
1720433421,864:     67  85  77
1720433421,864:    537  85  77
1720433421,864:   1238  85  77
1720433421,864:   2266  85  77
1720433421,864:   3639  85  77
1720433421,864:   5197  85  77
1720433421,864:   6669  85  77
1720433421,864:   7851  85  77
1720433421,864:   8728  85  77
1720433421,864:   9377  85  77
1720433421,864:   9761  85  77
1720433421,864:   9630  85  77
1720433421,864:   8695  85  77
1720433421,864:   6947  85  77
1720433421,896:   4784  82  80
1720433421,896:   2776  82  80
1720433421,896:   1251  82  80
1720433421,896:    118  82  80
1720433421,896:   -901  82  80
1720433421,896:  -1878  82  80
1720433421,896:  -2564  82  80
1720433421,896:  -2669  82  80
1720433421,896:  -2207  82  80
1720433421,896:  -1515  82  80
1720433421,896:   -965  82  80
1720433421,896:   -701  82  80
1720433421,896:   -631  82  80
1720433421,896:   -625  82  80
1720433421,896:   -649  82  80
1720433421,896:   -726  82  80
1720433421,896:   -847  82  80
1720433421,896:   -968  82  80
1720433421,896:  -1066  82  80
1720433421,896:  -1148  82  80
1720433421,896:  -1218  82  80
1720433421,896:  -1256  82  80
1720433421,927:  -1244  82  80
1720433421,927:  -1195  82  80
1720433421,927:  -1142  82  80
1720433421,927:  -1103  82  80
1720433421,927:  -1077  82  80
1720433421,927:  -1064  82  80
1720433421,927:  -1072  82  80
1720433421,927:  -1097  82  80
1720433421,927:  -1106  82  80
1720433421,927:  -1064  82  80
1720433421,927:   -970  82  80
1720433421,927:   -868  82  80
1720433421,927:   -805  82  80
1720433421,927:   -792  82  80
1720433421,927:   -801  82  80
1720433421,959:   -801  82  80
1720433421,959:   -793  82  80
1720433421,959:   -792  82  80
1720433421,959:   -792  82  80
1720433421,959:   -774  82  80
1720433421,959:   -731  82  80
1720433421,959:   -682  82  80
1720433421,959:   -657  82  80
1720433421,959:   -661  82  80
1720433421,959:   -676  82  80
1720433421,959:   -680  82  80
1720433421,959:   -674  82  80
1720433421,959:   -668  82  80
1720433421,959:   -660  82  80
1720433421,959:   -637  82  80
1720433421,990:   -600  82  80
1720433421,990:   -569  82  80
1720433421,990:   -565  82  80
1720433421,990:   -582  82  80
1720433421,990:   -587  82  80
1720433421,990:   -558  82  80
1720433421,990:   -514  82  80
1720433421,990:   -488  82  80
1720433421,990:   -489  82  80
1720433421,990:   -490  82  80
1720433421,990:   -464  82  80
1720433421,990:   -418  82  80
1720433421,990:   -379  82  80
1720433421,990:   -363  82  80
1720433421,990:   -353  82  80
1720433421,990:   -326  82  80
1720433421,990:   -291  82  80
1720433421,990:   -271  82  80
1720433421,990:   -272  82  80
1720433421,990:   -273  82  80
1720433421,990:   -255  82  80
1720433421,990:   -228  82  80
1720433421,990:   -218  82  80
1720433422,021:   -231  82  80
1720433422,021:   -239  82  80
1720433422,021:   -214  82  80
1720433422,021:   -161  82  80
1720433422,021:   -115  82  80
1720433422,021:    -98  82  80
1720433422,051:    -95  82  80
1720433422,051:    -75  82  80
1720433422,051:    -31  82  80
1720433422,051:     15  82  80
1720433422,051:     40  82  80
1720433422,051:     47  82  80
1720433422,051:     60  82  80
1720433422,051:     91  82  80
1720433422,051:    122  82  80
1720433422,051:    130  82  80
1720433422,051:    113  82  80
1720433422,051:     95  82  80
1720433422,051:     97  82  80
1720433422,051:    111  82  80
1720433422,051:    115  82  80
1720433422,051:    101  82  80
1720433422,051:     90  82  80
1720433422,051:    101  82  80
1720433422,051:    125  82  80
1720433422,051:    133  82  80
1720433422,051:    113  82  80
1720433422,083:     88  82  80
1720433422,083:     86  82  80
1720433422,083:    104  82  80
1720433422,083:    116  82  80
1720433422,083:    104  82  80
1720433422,083:     86  82  80
1720433422,083:     92  82  80
1720433422,083:    117  82  80
1720433422,083:    131  82  80
1720433422,083:    117  82  80
1720433422,083:     94  82  80
1720433422,083:     89  82  80
1720433422,083:    102  82  80
1720433422,083:    106  82  80
1720433422,083:     82  82  80
1720433422,115:     44  82  80
1720433422,115:     22  82  80
1720433422,115:     24  82  80
1720433422,115:     24  82  80
1720433422,115:     -3  82  80
1720433422,115:    -49  82  80
1720433422,115:    -85  82  80
1720433422,115:    -92  82  80
1720433422,115:    -81  82  80
1720433422,115:    -77  82  80
1720433422,115:    -87  82  80
1720433422,115:    -96  82  80
1720433422,115:    -85  82  80
1720433422,115:    -64  82  80
1720433422,115:    -56  82  80
1720433422,146:    -71  82  80
1720433422,146:    -94  82  80
1720433422,146:    -99  82  80
1720433422,146:    -83  82  80
1720433422,146:    -67  82  80
1720433422,146:    -68  82  80
1720433422,146:    -75  82  80
1720433422,146:    -66  82  80
1720433422,146:    -37  82  80
1720433422,146:    -10  82  80
1720433422,146:     -5  82  80
1720433422,146:    -17  82  80
1720433422,146:    -23  82  80
1720433422,146:     -9  82  80
1720433422,146:     13  82  80
1720433422,177:     21  82  80
1720433422,177:     18  82  80
1720433422,177:     18  82  80
1720433422,177:     31  82  80
1720433422,177:     45  82  80
1720433422,177:     47  82  80
1720433422,177:     38  82  80
1720433422,177:     32  82  80
1720433422,177:     40  82  80
1720433422,177:     53  82  80
1720433422,177:     59  82  80
1720433422,177:     64  82  80
1720433422,177:     81  82  80
1720433422,177:    109  82  80
1720433422,177:    131  82  80
1720433422,209:    131  82  80
1720433422,209:    119  82  80
1720433422,209:    117  82  80
1720433422,209:    132  82  80
1720433422,209:    147  82  80
1720433422,209:    143  82  80
1720433422,209:    125  82  80
1720433422,209:    118  82  80
1720433422,209:    138  82  80
1720433422,209:    170  82  80
1720433422,209:    188  82  80
1720433422,209:    184  82  80
1720433422,209:    172  82  80
1720433422,209:    170  82  80
1720433422,209:    186  82  80
1720433422,241:    206  82  80
1720433422,241:    217  82  80
1720433422,241:    218  82  80
1720433422,241:    214  82  80
1720433422,241:    211  82  80
1720433422,241:    211  82  80
1720433422,241:    214  82  80
1720433422,241:    213  82  80
1720433422,241:    208  82  80
1720433422,241:    201  82  80
1720433422,241:    199  82  80
1720433422,241:    208  82  80
1720433422,241:    229  82  80
1720433422,241:    253  82  80
1720433422,241:    267  82  80
1720433422,272:    266  82  80
1720433422,272:    258  82  80
1720433422,272:    255  82  80
1720433422,272:    260  82  80
1720433422,272:    265  82  80
1720433422,272:    258  82  80
1720433422,272:    241  82  80
1720433422,272:    230  82  80
1720433422,272:    237  82  80
1720433422,272:    255  82  80
1720433422,272:    264  82  80
1720433422,272:    256  82  80
1720433422,272:    242  82  80
1720433422,272:    238  82  80
1720433422,272:    245  82  80
1720433422,272:    252  82  80
1720433422,272:    252  82  80
1720433422,272:    251  82  80
1720433422,272:    258  82  80
1720433422,272:    264  82  80
1720433422,272:    256  82  80
1720433422,272:    232  82  80
1720433422,303:    211  82  80
1720433422,303:    207  82  80
1720433422,303:    213  82  80
1720433422,303:    213  82  80
1720433422,303:    201  82  80
1720433422,303:    190  82  80
1720433422,303:    196  82  80
1720433422,303:    211  82  80
1720433422,303:    222  82  80
1720433422,303:    221  82  80
1720433422,303:    216  82  80
1720433422,303:    215  82  80
1720433422,303:    218  82  80
1720433422,303:    220  82  80
1720433422,303:    221  82  80
1720433422,334:    230  82  80
1720433422,334:    250  82  80
1720433422,334:    268  82  80
1720433422,334:    273  82  80
1720433422,334:    267  82  80
1720433422,334:    258  82  80
1720433422,334:    255  82  80
1720433422,334:    256  82  80
1720433422,334:    254  82  80
1720433422,334:    249  82  80
1720433422,334:    245  82  80
1720433422,334:    249  82  80
1720433422,334:    254  82  80
1720433422,334:    253  82  80
1720433422,334:    248  82  80
1720433422,365:    248  82  80
1720433422,365:    259  82  80
1720433422,365:    270  82  80
1720433422,365:    272  82  80
1720433422,365:    264  82  80
1720433422,365:    264  82  80
1720433422,365:    283  82  80
1720433422,365:    310  82  80
1720433422,365:    322  82  80
1720433422,365:    310  82  80
1720433422,365:    292  82  80
1720433422,365:    290  82  80
1720433422,365:    301  82  80
1720433422,365:    304  82  80
1720433422,365:    285  82  80
1720433422,397:    258  82  80
1720433422,397:    251  82  80
1720433422,397:    273  82  80
1720433422,397:    298  82  80
1720433422,397:    300  82  80
1720433422,397:    279  82  80
1720433422,397:    259  82  80
1720433422,397:    259  82  80
1720433422,397:    273  82  80
1720433422,397:    283  82  80
1720433422,397:    282  82  80
1720433422,397:    281  82  80
1720433422,397:    288  82  80
1720433422,397:    296  82  80
1720433422,397:    292  82  80
1720433422,429:    279  82  80
1720433422,429:    272  82  80
1720433422,429:    274  82  80
1720433422,429:    274  82  80
1720433422,429:    260  82  80
1720433422,429:    233  82  80
1720433422,429:    214  82  80
1720433422,429:    217  82  80
1720433422,429:    239  82  80
1720433422,429:    262  82  80
1720433422,429:    278  82  80
1720433422,429:    291  82  80
1720433422,429:    309  82  80
1720433422,429:    338  82  80
1720433422,429:    371  82  80
1720433422,461:    399  82  80
1720433422,461:    412  82  80
1720433422,461:    414  82  80
1720433422,461:    408  82  80
1720433422,461:    399  82  80
1720433422,461:    382  82  80
1720433422,461:    352  82  80
1720433422,461:    314  82  80
1720433422,461:    289  82  80
1720433422,461:    284  82  80
1720433422,461:    291  82  80
1720433422,461:    291  82  80
1720433422,461:    278  82  80
1720433422,461:    263  82  80
1720433422,461:    255  82  80
1720433422,493:    246  82  80
1720433422,493:    220  82  80
1720433422,493:    173  82  80
1720433422,493:    119  82  80
1720433422,493:     78  82  80
1720433422,493:     52  82  80
1720433422,493:     35  82  80
1720433422,493:     28  82  80
1720433422,493:     34  82  80
1720433422,493:     54  82  80
1720433422,493:     75  82  80
1720433422,493:     85  82  80
1720433422,493:     85  82  80
1720433422,493:     83  82  80
