timestamp: ADC HeartRate4sAverage HeartRate30sAverage
1720427721,725:   -931  78  80
1720427721,725:   -903  78  80
1720427721,725:   -871  78  80
1720427721,725:   -848  78  80
1720427721,725:   -832  78  80
1720427721,725:   -813  78  80
1720427721,725:   -787  78  80
1720427721,725:   -759  78  80
1720427721,757:   -738  78  80
1720427721,757:   -722  78  80
1720427721,757:   -703  78  80
1720427721,757:   -677  78  80
1720427721,757:   -649  78  80
1720427721,757:   -626  78  80
1720427721,757:   -611  78  80
1720427721,757:   -595  78  80
1720427721,757:   -570  78  80
1720427721,757:   -543  78  80
1720427721,757:   -524  78  80
1720427721,757:   -515  78  80
1720427721,757:   -507  78  80
1720427721,757:   -490  78  80
1720427721,757:   -462  78  80
1720427721,757:   -432  78  80
1720427721,757:   -410  78  80
1720427721,757:   -396  78  80
1720427721,757:   -381  78  80
1720427721,757:   -360  78  80
1720427721,757:   -335  78  80
1720427721,757:   -310  78  80
1720427721,789:   -289  78  80
1720427721,789:   -273  78  80
1720427721,789:   -256  78  80
1720427721,789:   -239  78  80
1720427721,789:   -218  78  80
1720427721,789:   -194  78  80
1720427721,789:   -163  78  80
1720427721,789:   -131  78  80
1720427721,789:   -106  78  80
1720427721,789:    -91  78  80
1720427721,789:    -80  78  80
1720427721,789:    -66  78  80
1720427721,789:    -44  78  80
1720427721,789:    -20  78  80
1720427721,789:      0  78  80
1720427721,821:     15  78  80
1720427721,821:     31  78  80
1720427721,821:     51  78  80
1720427721,821:     70  78  80
1720427721,821:     84  78  80
1720427721,821:     95  78  80
1720427721,821:    107  78  80
1720427721,821:    121  78  80
1720427721,821:    132  78  80
1720427721,821:    131  78  80
1720427721,821:    117  78  80
1720427721,821:    103  78  80
1720427721,821:     95  78  80
1720427721,821:     88  78  80
1720427721,821:     75  78  80
1720427721,853:     50  78  80
1720427721,853:     20  78  80
1720427721,853:     -5  78  80
1720427721,853:    -23  78  80
1720427721,853:    -38  78  80
1720427721,853:    -55  78  80
1720427721,853:    -70  78  80
1720427721,853:    -79  78  80
1720427721,853:    -82  78  80
1720427721,853:    -86  78  80
1720427721,853:    -95  78  80
1720427721,853:   -107  78  80
1720427721,853:   -115  78  80
1720427721,853:   -119  78  80
1720427721,853:   -123  78  80
1720427721,853:   -132  78  80
1720427721,853:   -141  78  80
1720427721,853:   -146  78  80
1720427721,853:   -148  78  80
1720427721,853:   -153  78  80
1720427721,853:   -162  78  80
1720427721,853:   -172  78  80
1720427721,853:   -175  78  80
1720427721,884:   -168  78  80
1720427721,884:   -158  78  80
1720427721,884:   -150  78  80
1720427721,884:   -144  78  80
1720427721,884:   -139  78  80
1720427721,884:   -133  78  80
1720427721,884:   -126  78  80
1720427721,916:   -122  78  80
1720427721,916:   -121  78  80
1720427721,916:   -125  78  80
1720427721,916:   -129  78  80
1720427721,916:   -130  78  80
1720427721,916:   -126  78  80
1720427721,916:   -121  78  80
1720427721,916:   -117  78  80
1720427721,916:   -114  78  80
1720427721,916:   -109  78  80
1720427721,916:   -100  78  80
1720427721,916:    -95  78  80
1720427721,916:   -100  78  80
1720427721,916:   -111  78  80
1720427721,916:   -120  78  80
1720427721,916:   -119  78  80
1720427721,916:   -109  78  80
1720427721,916:    -96  78  80
1720427721,916:    -86  78  80
1720427721,916:    -83  78  80
1720427721,916:    -83  78  80
1720427721,916:    -84  78  80
1720427721,916:    -79  78  80
1720427721,948:    -67  78  80
1720427721,948:    -53  78  80
1720427721,948:    -49  78  80
1720427721,948:    -56  78  80
1720427721,948:    -67  78  80
1720427721,948:    -70  78  80
1720427721,948:    -63  78  80
1720427721,948:    -52  78  80
1720427721,948:    -45  78  80
1720427721,948:    -42  78  80
1720427721,948:    -41  78  80
1720427721,948:    -38  78  80
1720427721,948:    -35  78  80
1720427721,948:    -29  78  80
1720427721,948:    -20  78  80
1720427721,980:    -10  78  80
1720427721,980:     -6  78  80
1720427721,980:    -10  78  80
1720427721,980:    -18  78  80
1720427721,980:    -20  78  80
1720427721,980:    -14  78  80
1720427721,980:     -5  78  80
1720427722,012:      3  78  80
1720427722,012:      8  78  80
1720427722,012:     10  78  80
1720427722,012:     10  78  80
1720427722,012:     10  78  80
1720427722,012:     11  78  80
1720427722,012:     17  78  80
1720427722,012:     26  78  80
1720427722,012:     31  78  80
1720427722,012:     28  78  80
1720427722,012:     20  78  80
1720427722,012:     18  78  80
1720427722,012:     26  78  80
1720427722,012:     37  78  80
1720427722,012:     42  78  80
1720427722,012:     41  78  80
1720427722,012:     40  78  80
1720427722,012:     43  78  80
1720427722,012:     48  78  80
1720427722,012:     48  78  80
1720427722,012:     42  78  80
1720427722,012:     40  78  80
1720427722,012:     48  78  80
1720427722,043:     60  78  80
1720427722,043:     61  78  80
1720427722,043:     48  78  80
1720427722,043:     32  78  80
1720427722,043:     29  78  80
1720427722,043:     37  78  80
1720427722,043:     45  78  80
1720427722,043:     43  78  80
1720427722,043:     36  78  80
1720427722,043:     37  78  80
1720427722,043:     51  78  80
1720427722,043:     66  78  80
1720427722,043:     70  78  80
1720427722,043:     63  78  80
1720427722,043:     58  78  80
1720427722,043:     61  78  80
1720427722,043:     67  78  80
1720427722,043:     66  78  80
1720427722,043:     60  78  80
1720427722,043:     57  78  80
1720427722,043:     63  78  80
1720427722,043:     73  78  80
1720427722,075:     76  78  80
1720427722,075:     73  78  80
1720427722,075:     70  78  80
1720427722,075:     69  78  80
1720427722,075:     69  78  80
1720427722,075:     63  78  80
1720427722,075:     55  78  80
1720427722,075:     53  78  80
1720427722,075:     59  78  80
1720427722,075:     70  78  80
1720427722,075:     75  78  80
1720427722,075:     74  78  80
1720427722,075:     72  78  80
1720427722,075:     73  78  80
1720427722,075:     76  78  80
1720427722,107:     77  78  80
1720427722,107:     74  78  80
1720427722,107:     69  78  80
1720427722,107:     65  78  80
1720427722,107:     63  78  80
1720427722,107:     62  78  80
1720427722,107:     62  78  80
1720427722,107:     62  78  80
1720427722,107:     59  78  80
1720427722,107:     56  78  80
1720427722,107:     56  78  80
1720427722,107:     61  78  80
1720427722,107:     68  78  80
1720427722,107:     69  78  80
1720427722,107:     67  78  80
1720427722,138:     66  78  80
1720427722,138:     72  78  80
1720427722,138:     77  78  80
1720427722,138:     76  78  80
1720427722,138:     67  78  80
1720427722,138:     62  78  80
1720427722,138:     66  78  80
1720427722,138:     73  78  80
1720427722,138:     74  78  80
1720427722,138:     69  78  80
1720427722,138:     65  78  80
1720427722,138:     68  78  80
1720427722,138:     71  78  80
1720427722,138:     65  78  80
1720427722,138:     53  78  80
1720427722,170:     44  78  80
1720427722,170:     47  78  80
1720427722,170:     56  78  80
1720427722,170:     62  78  80
1720427722,170:     60  78  80
1720427722,170:     53  78  80
1720427722,170:     47  78  80
1720427722,170:     48  78  80
1720427722,170:     52  78  80
1720427722,170:     50  78  80
1720427722,170:     40  78  80
1720427722,170:     29  78  80
1720427722,170:     23  78  80
1720427722,170:     28  78  80
1720427722,170:     38  78  80
1720427722,202:     43  78  80
1720427722,202:     38  78  80
1720427722,202:     30  78  80
1720427722,202:     26  78  80
1720427722,202:     30  78  80
1720427722,202:     36  78  80
1720427722,202:     38  78  80
1720427722,202:     32  78  80
1720427722,202:     23  78  80
1720427722,202:     18  78  80
1720427722,202:     23  78  80
1720427722,202:     31  78  80
1720427722,202:     33  78  80
1720427722,202:     24  78  80
1720427722,202:      9  78  80
1720427722,233:      0  78  80
1720427722,233:      2  78  80
1720427722,233:      9  78  80
1720427722,233:     13  78  80
1720427722,233:     14  78  80
1720427722,233:     20  78  80
1720427722,233:     34  78  80
1720427722,233:     50  78  80
1720427722,233:     65  78  80
1720427722,233:     75  78  80
1720427722,233:     82  78  80
1720427722,233:     84  78  80
1720427722,233:     78  78  80
1720427722,233:     66  78  80
1720427722,233:     56  78  80
1720427722,264:     56  78  80
1720427722,264:     64  78  80
1720427722,264:     77  78  80
1720427722,264:     90  78  80
1720427722,264:    104  78  80
1720427722,264:    121  78  80
1720427722,264:    139  78  80
1720427722,264:    156  78  80
1720427722,264:    165  78  80
1720427722,264:    162  78  80
1720427722,264:    148  78  80
1720427722,264:    128  78  80
1720427722,264:    111  78  80
1720427722,264:     94  78  80
1720427722,264:     70  78  80
1720427722,296:     37  78  80
1720427722,296:      4  78  80
1720427722,296:    -13  78  80
1720427722,296:    -10  78  80
1720427722,296:      3  78  80
1720427722,296:     12  78  80
1720427722,296:     11  78  80
1720427722,296:      4  78  80
1720427722,296:     -1  78  80
1720427722,296:     -1  78  80
1720427722,296:      2  78  80
1720427722,296:      4  78  80
1720427722,296:     -2  78  80
1720427722,296:    -15  78  80
1720427722,296:    -27  78  80
1720427722,296:    -28  78  80
1720427722,296:    -21  78  80
1720427722,296:    -15  78  80
1720427722,296:    -15  78  80
1720427722,296:    -18  78  80
1720427722,296:    -19  78  80
1720427722,296:    -19  78  80
1720427722,296:    -22  78  80
1720427722,328:    -27  78  80
1720427722,328:    -25  78  80
1720427722,328:    -12  78  80
1720427722,328:     -2  78  80
1720427722,328:     -8  78  80
1720427722,328:    -29  78  80
1720427722,328:    -48  78  80
1720427722,328:    -54  78  80
1720427722,328:    -49  78  80
1720427722,328:    -41  78  80
1720427722,328:    -31  78  80
1720427722,328:    -17  78  80
1720427722,360:      6  78  80
1720427722,360:     38  78  80
1720427722,360:     70  78  80
1720427722,360:     86  78  80
1720427722,360:     63  78  80
1720427722,360:    -10  78  80
1720427722,360:   -114  78  80
1720427722,360:   -217  78  80
1720427722,360:   -315  78  80
1720427722,360:   -437  78  80
1720427722,360:   -591  78  80
1720427722,360:   -723  78  80
1720427722,360:   -730  78  80
1720427722,360:   -566  78  80
1720427722,360:   -260  78  80
1720427722,392:    177  78  80
1720427722,392:    810  78  80
1720427722,392:   1728  78  80
1720427722,392:   2921  78  80
1720427722,392:   4279  78  80
1720427722,392:   5701  78  80
1720427722,392:   7171  78  80
1720427722,392:   8666  78  80
1720427722,392:  10067  78  80
1720427722,392:  11203  78  80
1720427722,392:  11983  78  80
1720427722,392:  12383  78  80
1720427722,392:  12297  78  80
1720427722,392:  11501  78  80
1720427722,392:   9897  78  80
1720427722,392:   7750  78  80
1720427722,392:   5581  78  80
1720427722,392:   3742  78  80
1720427722,392:   2168  78  80
1720427722,392:    615  78  80
1720427722,392:   -918  78  80
1720427722,392:  -2093  78  80
1720427722,392:  -2586  78  80
1720427722,422:  -2438  75  77
1720427722,422:  -2016  75  77
1720427722,422:  -1675  75  77
1720427722,422:  -1520  75  77
1720427722,422:  -1489  75  77
1720427722,422:  -1523  75  77
1720427722,422:  -1625  75  77
1720427722,454:  -1799  75  77
1720427722,454:  -2006  75  77
1720427722,454:  -2205  75  77
1720427722,454:  -2383  75  77
1720427722,454:  -2535  75  77
1720427722,454:  -2622  75  77
1720427722,454:  -2597  75  77
1720427722,454:  -2470  75  77
1720427722,454:  -2301  75  77
1720427722,454:  -2154  75  77
1720427722,454:  -2066  75  77
1720427722,454:  -2051  75  77
1720427722,454:  -2102  75  77
1720427722,454:  -2192  75  77
1720427722,454:  -2268  75  77
1720427722,486:  -2276  75  77
1720427722,486:  -2189  75  77
1720427722,486:  -2034  75  77
1720427722,486:  -1876  75  77
1720427722,486:  -1765  75  77
1720427722,486:  -1716  75  77
1720427722,486:  -1709  75  77
1720427722,486:  -1721  75  77
1720427722,486:  -1732  75  77
1720427722,486:  -1731  75  77
1720427722,486:  -1707  75  77
1720427722,486:  -1652  75  77
1720427722,486:  -1574  75  77
1720427722,486:  -1496  75  77
1720427722,486:  -1438  75  77
1720427722,486:  -1405  75  77
1720427722,486:  -1386  75  77
1720427722,486:  -1368  75  77
1720427722,486:  -1343  75  77
1720427722,486:  -1311  75  77
1720427722,486:  -1275  75  77
1720427722,486:  -1233  75  77
1720427722,486:  -1186  75  77
1720427722,517:  -1142  75  77
1720427722,517:  -1108  75  77
1720427722,517:  -1084  75  77
1720427722,517:  -1069  75  77
1720427722,517:  -1054  75  77
1720427722,517:  -1037  75  77
1720427722,517:  -1016  75  77
1720427722,549:   -994  75  77
1720427722,549:   -970  75  77
1720427722,549:   -941  75  77
1720427722,549:   -909  75  77
1720427722,549:   -877  75  77
1720427722,549:   -848  75  77
1720427722,549:   -823  75  77
1720427722,549:   -798  75  77
1720427722,549:   -771  75  77
1720427722,549:   -746  75  77
1720427722,549:   -726  75  77
1720427722,549:   -709  75  77
1720427722,549:   -690  75  77
1720427722,549:   -664  75  77
1720427722,549:   -636  75  77
1720427722,549:   -617  75  77
1720427722,549:   -607  75  77
1720427722,549:   -599  75  77
1720427722,549:   -582  75  77
1720427722,549:   -556  75  77
1720427722,549:   -532  75  77
1720427722,549:   -517  75  77
1720427722,549:   -507  75  77
1720427722,581:   -493  75  77
1720427722,581:   -471  75  77
1720427722,581:   -449  75  77
1720427722,581:   -431  75  77
1720427722,581:   -415  75  77
1720427722,581:   -394  75  77
1720427722,581:   -365  75  77
1720427722,581:   -332  75  77
1720427722,581:   -301  75  77
1720427722,581:   -270  75  77
1720427722,581:   -239  75  77
1720427722,581:   -208  75  77
1720427722,581:   -179  75  77
1720427722,581:   -157  75  77
1720427722,581:   -140  75  77
1720427722,581:   -126  75  77
1720427722,581:   -111  75  77
1720427722,581:    -93  75  77
1720427722,581:    -72  75  77
1720427722,581:    -49  75  77
1720427722,581:    -24  75  77
1720427722,581:     -2  75  77
1720427722,613:     17  75  77
1720427722,613:     32  75  77
1720427722,613:     48  75  77
1720427722,613:     68  75  77
1720427722,613:     90  75  77
1720427722,613:    108  75  77
1720427722,613:    120  75  77
1720427722,613:    127  75  77
1720427722,613:    138  75  77
1720427722,613:    154  75  77
1720427722,613:    166  75  77
1720427722,613:    167  75  77
1720427722,613:    157  75  77
1720427722,613:    144  75  77
1720427722,613:    138  75  77
1720427722,644:    134  75  77
1720427722,644:    124  75  77
1720427722,644:    105  75  77
1720427722,644:     85  75  77
1720427722,644:     71  75  77
1720427722,644:     62  75  77
1720427722,644:     53  75  77
1720427722,644:     41  75  77
1720427722,676:     29  75  77
1720427722,676:     24  75  77
1720427722,676:     22  75  77
1720427722,676:     19  75  77
1720427722,676:     11  75  77
1720427722,676:      5  75  77
1720427722,676:      2  75  77
1720427722,676:      0  75  77
1720427722,676:     -6  75  77
1720427722,676:    -16  75  77
1720427722,676:    -24  75  77
1720427722,676:    -26  75  77
1720427722,676:    -24  75  77
1720427722,676:    -23  75  77
1720427722,676:    -23  75  77
1720427722,676:    -20  75  77
1720427722,676:    -11  75  77
1720427722,676:     -1  75  77
1720427722,676:      3  75  77
1720427722,676:      0  75  77
1720427722,676:     -6  75  77
1720427722,676:    -10  75  77
1720427722,708:     -7  75  77
1720427722,708:     -1  75  77
1720427722,708:      2  75  77
1720427722,708:      2  75  77
1720427722,708:      2  75  77
1720427722,708:      3  75  77
1720427722,708:      8  75  77
1720427722,708:     16  75  77
1720427722,708:     25  75  77
1720427722,708:     30  75  77
1720427722,708:     31  75  77
1720427722,708:     31  75  77
1720427722,708:     32  75  77
1720427722,708:     40  75  77
1720427722,708:     52  75  77
1720427722,739:     61  75  77
1720427722,739:     62  75  77
1720427722,739:     58  75  77
1720427722,739:     55  75  77
1720427722,739:     59  75  77
1720427722,739:     68  75  77
1720427722,739:     76  75  77
1720427722,739:     79  75  77
1720427722,739:     75  75  77
1720427722,739:     70  75  77
1720427722,739:     70  75  77
1720427722,739:     76  75  77
1720427722,739:     82  75  77
1720427722,739:     82  75  77
1720427722,739:     70  75  77
1720427722,771:     58  75  77
1720427722,771:     53  75  77
1720427722,771:     56  75  77
1720427722,771:     61  75  77
1720427722,771:     59  75  77
1720427722,771:     53  75  77
1720427722,771:     52  75  77
1720427722,771:     57  75  77
1720427722,771:     66  75  77
1720427722,771:     71  75  77
1720427722,771:     70  75  77
1720427722,771:     68  75  77
1720427722,771:     67  75  77
1720427722,771:     68  75  77
1720427722,771:     71  75  77
1720427722,803:     76  75  77
1720427722,803:     83  75  77
1720427722,803:     85  75  77
1720427722,803:     84  75  77
1720427722,803:     81  75  77
1720427722,803:     85  75  77
1720427722,803:     96  75  77
1720427722,803:    110  75  77
1720427722,803:    117  75  77
1720427722,803:    119  75  77
1720427722,803:    118  75  77
1720427722,803:    120  75  77
1720427722,803:    123  75  77
1720427722,803:    126  75  77
1720427722,803:    123  75  77
1720427722,803:    112  75  77
1720427722,803:    100  75  77
1720427722,803:     93  75  77
1720427722,803:     95  75  77
1720427722,803:    103  75  77
1720427722,803:    109  75  77
1720427722,803:    109  75  77
1720427722,803:    104  75  77
1720427722,835:    101  75  77
1720427722,835:    102  75  77
1720427722,835:    103  75  77
1720427722,835:    102  75  77
1720427722,835:    100  75  77
1720427722,835:    101  75  77
1720427722,835:    108  75  77
1720427722,835:    116  75  77
1720427722,835:    119  75  77
1720427722,835:    116  75  77
1720427722,835:    114  75  77
1720427722,835:    117  75  77
1720427722,835:    121  75  77
1720427722,835:    118  75  77
1720427722,835:    107  75  77
1720427722,867:     96  75  77
1720427722,867:     96  75  77
1720427722,867:    106  75  77
1720427722,867:    113  75  77
1720427722,867:    107  75  77
1720427722,867:     95  75  77
1720427722,867:     90  75  77
1720427722,898:     98  75  77
1720427722,898:    109  75  77
1720427722,898:    109  75  77
1720427722,898:    100  75  77
1720427722,898:     94  75  77
1720427722,898:    100  75  77
1720427722,898:    106  75  77
1720427722,898:    100  75  77
1720427722,898:     85  75  77
1720427722,898:     75  75  77
1720427722,898:     76  75  77
1720427722,898:     86  75  77
1720427722,898:     92  75  77
1720427722,898:     92  75  77
1720427722,898:     90  75  77
1720427722,929:     91  75  77
1720427722,929:     93  75  77
1720427722,929:     92  75  77
1720427722,929:     93  75  77
1720427722,929:     95  75  77
1720427722,929:     93  75  77
1720427722,929:     82  75  77
1720427722,929:     68  75  77
1720427722,929:     60  75  77
1720427722,929:     65  75  77
1720427722,929:     73  75  77
1720427722,929:     73  75  77
1720427722,929:     64  75  77
1720427722,929:     54  75  77
1720427722,929:     51  75  77
1720427722,929:     51  75  77
1720427722,929:     46  75  77
1720427722,929:     37  75  77
1720427722,929:     34  75  77
1720427722,929:     41  75  77
1720427722,929:     52  75  77
1720427722,929:     57  75  77
1720427722,929:     55  75  77
1720427722,961:     54  75  77
1720427722,961:     61  75  77
1720427722,961:     70  75  77
1720427722,961:     70  75  77
1720427722,961:     60  75  77
1720427722,961:     48  75  77
1720427722,961:     43  75  77
1720427722,961:     46  75  77
1720427722,961:     50  75  77
1720427722,961:     47  75  77
1720427722,961:     41  75  77
1720427722,961:     38  75  77
1720427722,961:     40  75  77
1720427722,961:     43  75  77
1720427722,961:     42  75  77
1720427722,993:     37  75  77
1720427722,993:     36  75  77
1720427722,993:     42  75  77
1720427722,993:     52  75  77
1720427722,993:     59  75  77
1720427722,993:     62  75  77
1720427722,993:     62  75  77
1720427722,993:     63  75  77
1720427722,993:     61  75  77
1720427722,993:     55  75  77
1720427722,993:     48  75  77
1720427722,993:     46  75  77
1720427722,993:     50  75  77
1720427722,993:     57  75  77
1720427722,993:     59  75  77
1720427723,025:     56  75  77
1720427723,025:     56  75  77
1720427723,025:     63  75  77
1720427723,025:     75  75  77
1720427723,025:     84  75  77
1720427723,025:     81  75  77
1720427723,025:     70  75  77
1720427723,025:     61  75  77
1720427723,025:     63  75  77
1720427723,025:     73  75  77
1720427723,025:     77  75  77
1720427723,025:     70  75  77
1720427723,025:     61  75  77
1720427723,025:     61  75  77
1720427723,025:     73  75  77
1720427723,025:     89  75  77
1720427723,025:    101  75  77
1720427723,025:    110  75  77
1720427723,025:    124  75  77
1720427723,025:    139  75  77
1720427723,025:    144  75  77
1720427723,025:    134  75  77
1720427723,057:    120  75  77
1720427723,057:    112  75  77
1720427723,057:    113  75  77
1720427723,057:    115  75  77
1720427723,057:    110  75  77
1720427723,057:    104  75  77
1720427723,057:    109  75  77
1720427723,057:    127  75  77
1720427723,057:    145  75  77
1720427723,057:    154  75  77
1720427723,057:    156  75  77
1720427723,057:    157  75  77
1720427723,057:    157  75  77
1720427723,057:    150  75  77
1720427723,057:    138  75  77
1720427723,088:    130  75  77
1720427723,088:    137  75  77
1720427723,088:    157  75  77
1720427723,088:    175  75  77
1720427723,088:    183  75  77
1720427723,088:    190  75  77
1720427723,088:    208  75  77
1720427723,088:    234  75  77
1720427723,120:    253  75  77
1720427723,120:    245  75  77
1720427723,120:    214  75  77
1720427723,120:    180  75  77
1720427723,120:    162  75  77
1720427723,120:    153  75  77
1720427723,120:    138  75  77
1720427723,120:    110  75  77
1720427723,120:     81  75  77
1720427723,120:     65  75  77
1720427723,120:     65  75  77
1720427723,120:     69  75  77
1720427723,120:     71  75  77
1720427723,120:     72  75  77
1720427723,120:     77  75  77
1720427723,120:     80  75  77
1720427723,120:     70  75  77
1720427723,120:     50  75  77
1720427723,120:     33  75  77
1720427723,120:     28  75  77
1720427723,120:     28  75  77
1720427723,120:     23  75  77
1720427723,152:     10  75  77
1720427723,152:      0  75  77
1720427723,152:      5  75  77
1720427723,152:     19  75  77
1720427723,152:     28  75  77
1720427723,152:     25  75  77
1720427723,152:     16  75  77
1720427723,152:     10  75  77
1720427723,152:      7  75  77
1720427723,152:      5  75  77
1720427723,152:     -1  75  77
1720427723,152:     -7  75  77
1720427723,152:     -5  75  77
1720427723,152:      3  75  77
1720427723,152:      7  75  77
1720427723,184:      1  75  77
1720427723,184:     -9  75  77
1720427723,184:    -11  75  77
1720427723,184:      6  75  77
1720427723,184:     36  75  77
1720427723,184:     57  75  77
1720427723,184:     62  75  77
1720427723,184:     73  75  77
1720427723,184:    106  75  77
1720427723,184:    139  75  77
1720427723,184:    119  75  77
1720427723,184:     25  75  77
1720427723,184:   -107  75  77
1720427723,184:   -218  75  77
1720427723,184:   -300  75  77
1720427723,216:   -396  75  77
1720427723,216:   -533  75  77
1720427723,216:   -652  75  77
1720427723,216:   -652  75  77
1720427723,216:   -497  75  77
1720427723,216:   -201  75  77
1720427723,216:    251  75  77
1720427723,216:    933  75  77
1720427723,216:   1896  75  77
1720427723,216:   3097  75  77
1720427723,216:   4443  75  77
1720427723,216:   5892  75  77
1720427723,216:   7435  75  77
1720427723,216:   8980  75  77
1720427723,216:  10339  75  77
1720427723,248:  11366  72  75
1720427723,248:  12057  72  75
1720427723,248:  12399  72  75
1720427723,248:  12184  72  75
1720427723,248:  11112  72  75
1720427723,248:   9170  72  75
1720427723,248:   6828  72  75
1720427723,248:   4711  72  75
1720427723,248:   3064  72  75
1720427723,248:   1631  72  75
1720427723,248:    108  72  75
1720427723,248:  -1388  72  75
1720427723,248:  -2387  72  75
1720427723,248:  -2581  72  75
1720427723,248:  -2158  72  75
1720427723,280:  -1613  72  75
1720427723,280:  -1302  72  75
1720427723,280:  -1248  72  75
1720427723,280:  -1302  72  75
1720427723,280:  -1386  72  75
1720427723,280:  -1519  72  75
1720427723,280:  -1721  72  75
1720427723,280:  -1949  72  75
1720427723,280:  -2152  72  75
1720427723,280:  -2308  72  75
1720427723,280:  -2427  72  75
1720427723,280:  -2483  72  75
1720427723,280:  -2441  72  75
1720427723,280:  -2298  72  75
1720427723,280:  -2101  72  75
1720427723,280:  -1930  72  75
1720427723,280:  -1851  72  75
1720427723,280:  -1885  72  75
1720427723,280:  -1994  72  75
1720427723,280:  -2107  72  75
1720427723,280:  -2155  72  75
1720427723,280:  -2113  72  75
1720427723,280:  -2001  72  75
1720427723,312:  -1861  72  75
1720427723,312:  -1735  72  75
1720427723,312:  -1650  72  75
1720427723,312:  -1617  72  75
1720427723,312:  -1629  72  75
1720427723,312:  -1665  72  75
1720427723,312:  -1690  72  75
1720427723,312:  -1677  72  75
1720427723,312:  -1622  72  75
1720427723,312:  -1547  72  75
1720427723,312:  -1473  72  75
1720427723,312:  -1408  72  75
1720427723,312:  -1355  72  75
1720427723,312:  -1317  72  75
1720427723,312:  -1304  72  75
1720427723,344:  -1312  72  75
1720427723,344:  -1317  72  75
1720427723,344:  -1295  72  75
1720427723,344:  -1240  72  75
1720427723,344:  -1177  72  75
1720427723,344:  -1128  72  75
1720427723,344:  -1099  72  75
1720427723,344:  -1074  72  75
1720427723,344:  -1045  72  75
1720427723,344:  -1016  72  75
1720427723,344:   -995  72  75
1720427723,344:   -983  72  75
1720427723,344:   -968  72  75
1720427723,344:   -946  72  75
1720427723,344:   -920  72  75
1720427723,344:   -896  72  75
1720427723,344:   -873  72  75
1720427723,344:   -844  72  75
1720427723,344:   -807  72  75
1720427723,375:   -769  72  75
1720427723,375:   -740  72  75
1720427723,375:   -728  72  75
1720427723,375:   -726  72  75
1720427723,375:   -721  72  75
1720427723,375:   -706  72  75
1720427723,375:   -681  72  75
1720427723,375:   -657  72  75
1720427723,406:   -639  72  75
1720427723,406:   -627  72  75
1720427723,406:   -614  72  75
1720427723,406:   -596  72  75
1720427723,406:   -573  72  75
1720427723,406:   -544  72  75
1720427723,406:   -511  72  75
1720427723,406:   -479  72  75
1720427723,406:   -455  72  75
1720427723,406:   -437  72  75
1720427723,406:   -419  72  75
1720427723,406:   -393  72  75
1720427723,406:   -358  72  75
1720427723,406:   -323  72  75
1720427723,406:   -298  72  75
1720427723,436:   -283  72  75
1720427723,436:   -269  72  75
1720427723,436:   -247  72  75
1720427723,436:   -216  72  75
1720427723,436:   -178  72  75
1720427723,436:   -139  72  75
1720427723,436:   -106  72  75
1720427723,436:    -81  72  75
1720427723,436:    -60  72  75
1720427723,436:    -36  72  75
1720427723,436:     -7  72  75
1720427723,436:     24  72  75
1720427723,436:     52  72  75
1720427723,436:     73  72  75
1720427723,436:     89  72  75
1720427723,468:    106  72  75
1720427723,468:    120  72  75
1720427723,468:    133  72  75
1720427723,468:    145  72  75
1720427723,468:    160  72  75
1720427723,468:    176  72  75
1720427723,468:    187  72  75
1720427723,468:    190  72  75
1720427723,468:    187  72  75
1720427723,468:    189  72  75
1720427723,468:    199  72  75
1720427723,468:    208  72  75
1720427723,468:    204  72  75
1720427723,468:    182  72  75
1720427723,468:    149  72  75
1720427723,500:    122  72  75
1720427723,500:    101  72  75
1720427723,500:     76  72  75
1720427723,500:     38  72  75
1720427723,500:     -4  72  75
1720427723,500:    -32  72  75
1720427723,500:    -42  72  75
1720427723,500:    -51  72  75
1720427723,500:    -73  72  75
1720427723,500:   -105  72  75
1720427723,500:   -129  72  75
1720427723,500:   -134  72  75
1720427723,500:   -132  72  75
1720427723,500:   -137  72  75
1720427723,500:   -153  72  75
1720427723,500:   -166  72  75
1720427723,500:   -169  72  75
1720427723,500:   -166  72  75
1720427723,500:   -166  72  75
1720427723,500:   -173  72  75
1720427723,500:   -181  72  75
1720427723,500:   -183  72  75
1720427723,532:   -179  72  75
1720427723,532:   -172  72  75
1720427723,532:   -168  72  75
1720427723,532:   -165  72  75
1720427723,532:   -162  72  75
1720427723,532:   -158  72  75
1720427723,532:   -155  72  75
1720427723,532:   -151  72  75
1720427723,532:   -147  72  75
1720427723,532:   -144  72  75
1720427723,532:   -140  72  75
1720427723,532:   -137  72  75
1720427723,532:   -133  72  75
1720427723,532:   -124  72  75
1720427723,532:   -110  72  75
1720427723,563:    -97  72  75
1720427723,563:    -92  72  75
1720427723,563:    -96  72  75
1720427723,563:   -105  72  75
1720427723,563:   -111  72  75
1720427723,563:   -110  72  75
1720427723,563:   -107  72  75
1720427723,563:   -107  72  75
1720427723,563:   -106  72  75
1720427723,563:   -101  72  75
1720427723,563:    -96  72  75
1720427723,563:    -93  72  75
1720427723,563:    -92  72  75
1720427723,563:    -90  72  75
1720427723,563:    -86  72  75
1720427723,595:    -83  72  75
1720427723,595:    -85  72  75
1720427723,595:    -87  72  75
1720427723,595:    -78  72  75
1720427723,595:    -60  72  75
1720427723,595:    -42  72  75
1720427723,595:    -36  72  75
1720427723,595:    -39  72  75
1720427723,595:    -40  72  75
1720427723,595:    -34  72  75
1720427723,595:    -23  72  75
1720427723,595:    -17  72  75
1720427723,595:    -20  72  75
1720427723,595:    -24  72  75
1720427723,595:    -23  72  75
1720427723,627:    -20  72  75
1720427723,627:    -19  72  75
1720427723,627:    -19  72  75
1720427723,627:    -16  72  75
1720427723,627:     -6  72  75
1720427723,627:      9  72  75
1720427723,627:     22  72  75
1720427723,627:     27  72  75
1720427723,627:     26  72  75
1720427723,627:     29  72  75
1720427723,627:     42  72  75
1720427723,627:     62  72  75
1720427723,627:     74  72  75
1720427723,627:     68  72  75
1720427723,627:     48  72  75
1720427723,659:     33  72  75
1720427723,659:     40  72  75
1720427723,659:     61  72  75
1720427723,659:     75  72  75
1720427723,659:     71  72  75
1720427723,659:     56  72  75
1720427723,659:     50  72  75
1720427723,659:     61  72  75
1720427723,659:     76  72  75
1720427723,659:     80  72  75
1720427723,659:     71  72  75
1720427723,659:     63  72  75
1720427723,659:     64  72  75
1720427723,659:     74  72  75
1720427723,659:     83  72  75
1720427723,659:     84  72  75
1720427723,659:     80  72  75
1720427723,659:     76  72  75
1720427723,659:     76  72  75
1720427723,659:     79  72  75
1720427723,659:     83  72  75
1720427723,659:     87  72  75
1720427723,659:     90  72  75
1720427723,690:     86  72  75
1720427723,690:     82  72  75
1720427723,690:     85  72  75
1720427723,690:     99  72  75
1720427723,690:    117  72  75
1720427723,690:    127  72  75
1720427723,690:    121  72  75
1720427723,722:    108  72  75
1720427723,722:    105  72  75
1720427723,722:    113  72  75
1720427723,722:    122  72  75
1720427723,722:    118  72  75
1720427723,722:    105  72  75
1720427723,722:     96  72  75
1720427723,722:     98  72  75
1720427723,722:    104  72  75
1720427723,722:    103  72  75
1720427723,722:     94  72  75
1720427723,722:     87  72  75
1720427723,722:     91  72  75
1720427723,722:    105  72  75
1720427723,722:    118  72  75
1720427723,722:    126  72  75
1720427723,722:    128  72  75
1720427723,722:    127  72  75
1720427723,722:    125  72  75
1720427723,722:    122  72  75
1720427723,722:    118  72  75
1720427723,722:    114  72  75
1720427723,722:    107  72  75
1720427723,753:     96  72  75
1720427723,753:     84  72  75
1720427723,753:     78  72  75
1720427723,753:     80  72  75
1720427723,753:     83  72  75
1720427723,753:     79  72  75
1720427723,753:     68  72  75
1720427723,753:     59  72  75
1720427723,753:     62  72  75
1720427723,753:     74  72  75
1720427723,753:     83  72  75
1720427723,753:     79  72  75
1720427723,753:     70  72  75
1720427723,753:     67  72  75
1720427723,753:     77  72  75
1720427723,785:     89  72  75
1720427723,785:     93  72  75
1720427723,785:     86  72  75
1720427723,785:     78  72  75
1720427723,785:     77  72  75
1720427723,785:     84  72  75
1720427723,785:     93  72  75
1720427723,785:    102  72  75
1720427723,785:    110  72  75
1720427723,785:    113  72  75
1720427723,785:    108  72  75
1720427723,785:     97  72  75
1720427723,785:     89  72  75
1720427723,785:     90  72  75
1720427723,785:     97  72  75
1720427723,817:    102  72  75
1720427723,817:     99  72  75
1720427723,817:     92  72  75
1720427723,817:     92  72  75
1720427723,817:    101  72  75
1720427723,817:    114  72  75
1720427723,817:    124  72  75
1720427723,817:    127  72  75
1720427723,817:    126  72  75
1720427723,817:    121  72  75
1720427723,817:    114  72  75
1720427723,817:    108  72  75
1720427723,817:    107  72  75
1720427723,817:    112  72  75
1720427723,817:    117  72  75
1720427723,849:    117  72  75
1720427723,849:    114  72  75
1720427723,849:    110  72  75
1720427723,849:    107  72  75
1720427723,849:    104  72  75
1720427723,849:     97  72  75
1720427723,849:     89  72  75
1720427723,849:     85  72  75
1720427723,849:     86  72  75
1720427723,849:     87  72  75
1720427723,849:     83  72  75
1720427723,849:     75  72  75
1720427723,849:     70  72  75
1720427723,849:     74  72  75
1720427723,849:     87  72  75
1720427723,880:     96  72  75
1720427723,880:     93  72  75
1720427723,880:     79  72  75
1720427723,880:     66  72  75
1720427723,880:     63  72  75
1720427723,880:     64  72  75
1720427723,880:     60  72  75
1720427723,880:     49  72  75
1720427723,880:     36  72  75
1720427723,880:     32  72  75
1720427723,880:     38  72  75
1720427723,880:     45  72  75
1720427723,880:     48  72  75
1720427723,880:     52  72  75
1720427723,880:     62  72  75
1720427723,880:     77  72  75
1720427723,880:     87  72  75
1720427723,880:     86  72  75
1720427723,880:     76  72  75
1720427723,880:     66  72  75
1720427723,880:     67  72  75
1720427723,880:     76  72  75
1720427723,912:     84  72  75
1720427723,912:     87  72  75
1720427723,912:     89  72  75
1720427723,912:     93  72  75
1720427723,912:    102  72  75
1720427723,912:    113  72  75
1720427723,912:    118  72  75
1720427723,912:    113  72  75
1720427723,912:    102  72  75
1720427723,912:     92  72  75
1720427723,912:     86  72  75
1720427723,912:     86  72  75
1720427723,912:     89  72  75
1720427723,912:     91  72  75
1720427723,912:     94  72  75
1720427723,943:    106  72  75
1720427723,943:    130  72  75
1720427723,943:    159  72  75
1720427723,943:    181  72  75
1720427723,943:    186  72  75
1720427723,943:    176  72  75
1720427723,943:    163  72  75
1720427723,943:    157  72  75
1720427723,943:    154  72  75
1720427723,943:    140  72  75
1720427723,943:    106  72  75
1720427723,943:     62  72  75
1720427723,943:     26  72  75
1720427723,943:     12  72  75
1720427723,943:     16  72  75
1720427723,975:     24  72  75
1720427723,975:     23  72  75
1720427723,975:     15  72  75
1720427723,975:      7  72  75
1720427723,975:      1  72  75
1720427723,975:     -6  72  75
1720427723,975:    -13  72  75
1720427723,975:    -18  72  75
1720427723,975:    -17  72  75
1720427723,975:    -12  72  75
1720427723,975:    -13  72  75
1720427723,975:    -17  72  75
1720427723,975:    -14  72  75
1720427723,975:      3  72  75
1720427723,975:     23  72  75
1720427724,007:     30  72  75
1720427724,007:     21  72  75
1720427724,007:      5  72  75
1720427724,007:      0  72  75
1720427724,007:      5  72  75
1720427724,007:      7  72  75
1720427724,007:     -1  72  75
1720427724,007:    -13  72  75
1720427724,007:    -14  72  75
1720427724,007:     -6  72  75
1720427724,007:     -1  72  75
1720427724,007:     -7  72  75
1720427724,007:    -18  72  75
1720427724,007:    -18  72  75
1720427724,007:     -1  72  75
1720427724,037:     23  72  75
1720427724,037:     35  72  75
1720427724,037:     37  72  75
1720427724,037:     45  72  75
1720427724,037:     70  72  75
1720427724,037:     84  72  75
1720427724,037:     49  72  75
1720427724,037:    -45  72  75
1720427724,037:   -159  72  75
1720427724,037:   -249  72  75
1720427724,037:   -322  72  75
1720427724,037:   -414  72  75
1720427724,037:   -532  72  75
1720427724,037:   -615  72  75
1720427724,037:   -593  72  75
1720427724,069:   -448  72  75
1720427724,069:   -174  72  75
1720427724,069:    289  72  75
1720427724,069:   1019  72  75
1720427724,069:   2020  72  75
1720427724,069:   3209  72  75
1720427724,069:   4514  72  75
1720427724,069:   5950  72  75
1720427724,131:   7515  72  74
1720427724,131:   9054  72  74
1720427724,131:  10324  72  74
1720427724,131:  11210  72  74
1720427724,131:  11771  72  74
1720427724,131:  11997  72  74
1720427724,131:  11619  72  74
1720427724,131:  10319  72  74
1720427724,131:   8179  72  74
1720427724,131:   5792  72  74
1720427724,131:   3790  72  74
1720427724,131:   2299  72  74
1720427724,131:    963  72  74
1720427724,131:   -495  72  74
1720427724,131:  -1857  72  74
1720427724,131:  -2628  72  74
1720427724,131:  -2586  72  74
1720427724,131:  -2022  72  74
1720427724,131:  -1446  72  74
1720427724,131:  -1153  72  74
1720427724,131:  -1118  72  74
1720427724,131:  -1199  72  74
1720427724,131:  -1327  72  74
1720427724,131:  -1502  72  74
1720427724,131:  -1714  72  74
1720427724,131:  -1925  72  74
1720427724,131:  -2105  72  74
1720427724,131:  -2259  72  74
1720427724,131:  -2381  72  74
1720427724,131:  -2426  72  74
1720427724,131:  -2354  72  74
1720427724,131:  -2181  72  74
1720427724,131:  -1978  72  74
1720427724,131:  -1829  72  74
1720427724,131:  -1790  72  74
1720427724,131:  -1854  72  74
1720427724,131:  -1965  72  74
1720427724,162:  -2055  72  74
1720427724,162:  -2077  72  74
1720427724,162:  -2019  72  74
1720427724,162:  -1897  72  74
1720427724,162:  -1746  72  74
1720427724,162:  -1609  72  74
1720427724,162:  -1523  72  74
1720427724,162:  -1502  72  74
1720427724,162:  -1528  72  74
1720427724,162:  -1564  72  74
1720427724,162:  -1576  72  74
1720427724,162:  -1551  72  74
1720427724,162:  -1493  72  74
1720427724,162:  -1411  72  74
1720427724,162:  -1323  72  74
1720427724,162:  -1248  72  74
1720427724,162:  -1199  72  74
1720427724,162:  -1178  72  74
1720427724,162:  -1169  72  74
1720427724,162:  -1157  72  74
1720427724,162:  -1131  72  74
1720427724,162:  -1095  72  74
1720427724,162:  -1057  72  74
1720427724,194:  -1016  72  74
1720427724,194:   -973  72  74
1720427724,194:   -930  72  74
1720427724,194:   -895  72  74
1720427724,194:   -872  72  74
1720427724,194:   -856  72  74
1720427724,194:   -839  72  74
1720427724,194:   -815  72  74
1720427724,194:   -784  72  74
1720427724,194:   -750  72  74
1720427724,194:   -715  72  74
1720427724,194:   -679  72  74
1720427724,194:   -647  72  74
1720427724,194:   -623  72  74
1720427724,194:   -604  72  74
1720427724,225:   -585  72  74
1720427724,225:   -561  72  74
1720427724,225:   -536  72  74
1720427724,225:   -519  72  74
1720427724,225:   -510  72  74
1720427724,225:   -500  72  74
1720427724,225:   -480  72  74
1720427724,225:   -450  72  74
1720427724,225:   -419  72  74
1720427724,225:   -396  72  74
1720427724,225:   -379  72  74
1720427724,225:   -363  72  74
1720427724,225:   -343  72  74
1720427724,225:   -318  72  74
1720427724,225:   -288  72  74
1720427724,257:   -255  72  74
1720427724,257:   -223  72  74
1720427724,257:   -197  72  74
1720427724,257:   -176  72  74
1720427724,257:   -155  72  74
1720427724,257:   -128  72  74
1720427724,257:    -98  72  74
1720427724,257:    -72  72  74
1720427724,257:    -53  72  74
1720427724,257:    -35  72  74
1720427724,257:    -15  72  74
1720427724,257:     10  72  74
1720427724,257:     35  72  74
1720427724,257:     56  72  74
1720427724,257:     73  72  74
1720427724,289:     92  72  74
1720427724,289:    110  72  74
1720427724,289:    126  72  74
1720427724,289:    140  72  74
1720427724,289:    153  72  74
1720427724,289:    169  72  74
1720427724,289:    187  72  74
1720427724,289:    205  72  74
1720427724,289:    221  72  74
1720427724,289:    232  72  74
1720427724,289:    241  72  74
1720427724,289:    249  72  74
1720427724,289:    257  72  74
1720427724,289:    265  72  74
1720427724,289:    267  72  74
1720427724,321:    258  72  74
1720427724,321:    242  72  74
1720427724,321:    227  72  74
1720427724,321:    210  72  74
1720427724,321:    187  72  74
1720427724,321:    152  72  74
1720427724,321:    112  72  74
1720427724,321:     73  72  74
1720427724,321:     39  72  74
1720427724,321:      7  72  74
1720427724,321:    -26  72  74
1720427724,321:    -58  72  74
1720427724,321:    -82  72  74
1720427724,321:   -101  72  74
1720427724,321:   -124  72  74
1720427724,321:   -155  72  74
1720427724,321:   -186  72  74
1720427724,321:   -205  72  74
1720427724,321:   -214  72  74
1720427724,321:   -221  72  74
1720427724,321:   -237  72  74
1720427724,321:   -260  72  74
1720427724,353:   -278  72  74
1720427724,353:   -283  72  74
1720427724,353:   -277  72  74
1720427724,353:   -270  72  74
1720427724,353:   -269  72  74
1720427724,353:   -278  72  74
1720427724,353:   -291  72  74
1720427724,353:   -299  72  74
1720427724,353:   -298  72  74
1720427724,353:   -291  72  74
1720427724,353:   -281  72  74
1720427724,353:   -273  72  74
1720427724,353:   -267  72  74
1720427724,385:   -264  72  74
1720427724,385:   -263  72  74
1720427724,385:   -264  72  74
1720427724,385:   -264  72  74
1720427724,385:   -257  72  74
1720427724,385:   -242  72  74
1720427724,385:   -228  72  74
1720427724,385:   -224  72  74
1720427724,385:   -231  72  74
1720427724,385:   -237  72  74
1720427724,385:   -232  72  74
1720427724,385:   -214  72  74
1720427724,385:   -196  72  74
1720427724,385:   -188  72  74
1720427724,385:   -191  72  74
1720427724,417:   -193  72  74
1720427724,417:   -187  72  74
1720427724,417:   -170  72  74
1720427724,417:   -151  72  74
1720427724,417:   -140  72  74
1720427724,417:   -137  72  74
1720427724,417:   -135  72  74
1720427724,417:   -133  72  74
1720427724,417:   -129  72  74
1720427724,417:   -127  72  74
1720427724,417:   -127  72  74
1720427724,417:   -129  72  74
1720427724,417:   -128  72  74
1720427724,417:   -123  72  74
1720427724,417:   -116  72  74
1720427724,417:   -113  72  74
1720427724,417:   -116  72  74
1720427724,417:   -124  72  74
1720427724,417:   -131  72  74
1720427724,417:   -129  72  74
1720427724,417:   -120  72  74
1720427724,417:   -111  72  74
1720427724,449:   -106  72  74
1720427724,449:   -104  72  74
1720427724,449:    -99  72  74
1720427724,449:    -87  72  74
1720427724,449:    -75  72  74
1720427724,449:    -69  72  74
1720427724,449:    -68  72  74
1720427724,449:    -64  72  74
1720427724,481:    -55  72  74
1720427724,481:    -46  72  74
1720427724,481:    -43  72  74
1720427724,481:    -42  72  74
1720427724,481:    -40  72  74
1720427724,481:    -36  72  74
1720427724,481:    -31  72  74
1720427724,481:    -27  72  74
1720427724,481:    -24  72  74
1720427724,481:    -19  72  74
1720427724,481:    -16  72  74
1720427724,481:    -17  72  74
1720427724,481:    -16  72  74
1720427724,481:     -7  72  74
1720427724,481:      5  72  74
1720427724,513:      8  72  74
1720427724,513:     -4  72  74
1720427724,513:    -21  72  74
1720427724,513:    -27  72  74
1720427724,513:    -17  72  74
1720427724,513:     -5  72  74
1720427724,513:     -5  72  74
1720427724,513:    -15  72  74
1720427724,513:    -23  72  74
1720427724,513:    -19  72  74
1720427724,513:     -8  72  74
1720427724,513:     -2  72  74
1720427724,513:     -6  72  74
1720427724,513:    -15  72  74
1720427724,513:    -23  72  74
1720427724,513:    -28  72  74
1720427724,513:    -28  72  74
1720427724,513:    -25  72  74
1720427724,513:    -19  72  74
1720427724,513:    -15  72  74
1720427724,513:    -17  72  74
1720427724,513:    -21  72  74
1720427724,544:    -22  72  74
1720427724,544:    -16  72  74
1720427724,544:     -9  72  74
1720427724,544:     -7  72  74
1720427724,544:    -16  72  74
1720427724,544:    -26  72  74
1720427724,544:    -25  72  74
1720427724,544:    -10  72  74
1720427724,544:      4  72  74
1720427724,544:      5  72  74
1720427724,544:     -7  72  74
1720427724,544:    -14  72  74
1720427724,544:     -9  72  74
1720427724,544:      2  72  74
1720427724,544:      7  72  74
1720427724,575:      1  72  74
1720427724,575:     -3  72  74
1720427724,575:      5  72  74
1720427724,575:     19  72  74
1720427724,575:     21  72  74
1720427724,575:      9  72  74
1720427724,575:     -4  72  74
1720427724,575:     -6  72  74
1720427724,575:     -2  72  74
1720427724,575:     -4  72  74
1720427724,575:    -15  72  74
1720427724,575:    -26  72  74
1720427724,575:    -24  72  74
1720427724,575:    -13  72  74
1720427724,575:     -5  72  74
1720427724,607:     -5  72  74
1720427724,607:     -7  72  74
1720427724,607:     -3  72  74
1720427724,607:      7  72  74
1720427724,607:     13  72  74
1720427724,607:     10  72  74
1720427724,607:      4  72  74
1720427724,607:      5  72  74
1720427724,607:     15  72  74
1720427724,607:     23  72  74
1720427724,607:     20  72  74
1720427724,607:      8  72  74
1720427724,607:     -1  72  74
1720427724,607:      1  72  74
1720427724,607:      9  72  74
1720427724,639:     14  72  74
1720427724,639:     12  72  74
1720427724,639:     11  72  74
1720427724,639:     17  72  74
1720427724,639:     27  72  74
1720427724,639:     34  72  74
1720427724,639:     34  72  74
1720427724,639:     33  72  74
1720427724,639:     37  72  74
1720427724,639:     43  72  74
1720427724,639:     47  72  74
1720427724,639:     47  72  74
1720427724,639:     49  72  74
1720427724,639:     58  72  74
1720427724,639:     69  72  74
1720427724,639:     75  72  74
1720427724,639:     76  72  74
1720427724,639:     77  72  74
1720427724,639:     81  72  74
1720427724,639:     86  72  74
1720427724,639:     86  72  74
1720427724,639:     80  72  74
1720427724,639:     73  72  74
1720427724,669:     69  72  74
1720427724,669:     66  72  74
1720427724,669:     61  72  74
1720427724,669:     56  72  74
1720427724,669:     55  72  74
1720427724,669:     58  72  74
1720427724,669:     63  72  74
1720427724,700:     68  72  74
1720427724,700:     72  72  74
1720427724,700:     80  72  74
1720427724,700:     93  72  74
1720427724,700:    106  72  74
1720427724,700:    111  72  74
1720427724,700:    105  72  74
1720427724,700:     95  72  74
1720427724,700:     90  72  74
1720427724,700:     90  72  74
1720427724,700:     87  72  74
1720427724,700:     74  72  74
1720427724,700:     59  72  74
1720427724,700:     56  72  74
1720427724,700:     71  72  74
1720427724,732:     89  72  74
1720427724,732:     93  72  74
1720427724,732:     81  72  74
1720427724,732:     70  72  74
1720427724,732:     75  72  74
1720427724,732:     95  72  74
1720427724,732:    112  72  74
1720427724,732:    114  72  74
1720427724,732:    109  72  74
1720427724,732:    111  72  74
1720427724,732:    127  72  74
1720427724,732:    143  72  74
1720427724,732:    146  72  74
1720427724,732:    132  72  74
1720427724,732:    114  72  74
1720427724,732:    102  72  74
1720427724,732:     99  72  74
1720427724,732:    100  72  74
1720427724,732:    102  72  74
1720427724,732:    107  72  74
1720427724,732:    119  72  74
1720427724,732:    137  72  74
1720427724,732:    158  72  74
1720427724,763:    177  72  74
1720427724,763:    189  72  74
1720427724,763:    189  72  74
1720427724,763:    179  72  74
1720427724,763:    165  72  74
1720427724,763:    154  72  74
1720427724,763:    143  72  74
1720427724,763:    123  72  74
1720427724,763:     91  72  74
1720427724,763:     57  72  74
1720427724,763:     36  72  74
1720427724,763:     30  72  74
1720427724,763:     31  72  74
1720427724,763:     28  72  74
1720427724,763:     20  72  74
1720427724,794:     17  72  74
1720427724,794:     21  72  74
1720427724,794:     28  72  74
1720427724,794:     29  72  74
1720427724,794:     23  72  74
1720427724,794:     12  72  74
1720427724,794:      3  72  74
1720427724,794:     -1  72  74
1720427724,794:     -1  72  74
1720427724,794:      2  72  74
1720427724,794:      7  72  74
1720427724,794:     13  72  74
1720427724,794:     19  72  74
1720427724,794:     23  72  74
1720427724,794:     25  72  74
1720427724,826:     23  72  74
1720427724,826:     20  72  74
1720427724,826:     19  72  74
1720427724,826:     20  72  74
1720427724,826:     17  72  74
1720427724,826:      9  72  74
1720427724,826:     -2  72  74
1720427724,826:    -10  72  74
1720427724,826:    -13  72  74
1720427724,826:    -16  72  74
1720427724,826:    -24  72  74
1720427724,826:    -33  72  74
1720427724,826:    -32  72  74
1720427724,826:    -15  72  74
1720427724,826:      5  72  74
1720427724,857:     20  72  74
1720427724,857:     36  72  74
1720427724,857:     61  72  74
1720427724,857:     79  72  74
1720427724,857:     53  72  74
1720427724,857:    -34  72  74
1720427724,857:   -152  72  74
1720427724,857:   -257  72  74
1720427724,857:   -347  72  74
1720427724,857:   -461  72  74
1720427724,857:   -614  72  74
1720427724,857:   -745  72  74
1720427724,857:   -747  72  74
1720427724,857:   -585  72  74
1720427724,857:   -284  72  74
1720427724,888:    159  72  74
1720427724,888:    824  72  74
1720427724,888:   1784  72  74
1720427724,888:   3010  72  74
1720427724,888:   4391  72  74
1720427724,888:   5848  72  74
1720427724,888:   7361  72  74
1720427724,888:   8871  72  74
1720427724,888:  10215  72  74
1720427724,888:  11229  72  74
1720427724,888:  11872  72  74
1720427724,888:  12146  72  74
1720427724,888:  11910  72  74
1720427724,888:  10913  72  74
1720427724,888:   9093  72  74
1720427724,918:   6817  74  73
1720427724,918:   4667  74  73
1720427724,918:   2956  74  73
1720427724,918:   1533  74  73
1720427724,918:    103  74  73
1720427724,918:  -1308  74  73
1720427724,918:  -2323  74  73
1720427724,918:  -2626  74  73
1720427724,918:  -2317  74  73
1720427724,918:  -1815  74  73
1720427724,918:  -1479  74  73
1720427724,918:  -1380  74  73
1720427724,918:  -1409  74  73
1720427724,918:  -1486  74  73
1720427724,918:  -1617  74  73
1720427724,949:  -1814  74  73
1720427724,949:  -2036  74  73
1720427724,949:  -2231  74  73
1720427724,949:  -2381  74  73
1720427724,949:  -2499  74  73
1720427724,949:  -2568  74  73
1720427724,949:  -2548  74  73
1720427724,949:  -2427  74  73
1720427724,949:  -2249  74  73
1720427724,949:  -2087  74  73
1720427724,949:  -2001  74  73
1720427724,949:  -2011  74  73
1720427724,949:  -2086  74  73
1720427724,949:  -2174  74  73
1720427724,949:  -2223  74  73
1720427724,949:  -2202  74  73
1720427724,949:  -2107  74  73
1720427724,949:  -1965  74  73
1720427724,949:  -1823  74  73
1720427724,949:  -1727  74  73
1720427724,949:  -1691  74  73
1720427724,949:  -1698  74  73
1720427724,980:  -1718  74  73
1720427724,980:  -1724  74  73
1720427724,980:  -1704  74  73
1720427724,980:  -1656  74  73
1720427724,980:  -1584  74  73
1720427724,980:  -1498  74  73
1720427724,980:  -1416  74  73
1720427724,980:  -1358  74  73
1720427725,011:  -1331  74  73
1720427725,011:  -1327  74  73
1720427725,011:  -1330  74  73
1720427725,011:  -1320  74  73
1720427725,011:  -1293  74  73
1720427725,011:  -1253  74  73
1720427725,011:  -1212  74  73
1720427725,011:  -1177  74  73
1720427725,011:  -1141  74  73
1720427725,011:  -1103  74  73
1720427725,011:  -1064  74  73
1720427725,011:  -1032  74  73
1720427725,011:  -1012  74  73
1720427725,011:   -999  74  73
1720427725,011:   -983  74  73
1720427725,011:   -957  74  73
1720427725,011:   -927  74  73
1720427725,011:   -899  74  73
1720427725,011:   -874  74  73
1720427725,011:   -852  74  73
1720427725,011:   -830  74  73
1720427725,011:   -810  74  73
1720427725,041:   -791  74  73
1720427725,041:   -768  74  73
1720427725,041:   -743  74  73
1720427725,041:   -719  74  73
1720427725,041:   -698  74  73
1720427725,041:   -677  74  73
1720427725,041:   -652  74  73
1720427725,041:   -627  74  73
1720427725,041:   -608  74  73
1720427725,041:   -594  74  73
1720427725,041:   -582  74  73
1720427725,041:   -568  74  73
1720427725,041:   -551  74  73
1720427725,041:   -536  74  73
1720427725,041:   -523  74  73
1720427725,073:   -508  74  73
1720427725,073:   -487  74  73
1720427725,073:   -462  74  73
1720427725,073:   -437  74  73
1720427725,073:   -412  74  73
1720427725,073:   -386  74  73
1720427725,073:   -361  74  73
1720427725,073:   -338  74  73
1720427725,073:   -316  74  73
1720427725,073:   -290  74  73
1720427725,073:   -256  74  73
1720427725,073:   -219  74  73
1720427725,073:   -184  74  73
1720427725,073:   -154  74  73
1720427725,073:   -129  74  73
1720427725,104:   -104  74  73
1720427725,104:    -80  74  73
1720427725,104:    -58  74  73
1720427725,104:    -36  74  73
1720427725,104:    -14  74  73
1720427725,104:      4  74  73
1720427725,104:     19  74  73
1720427725,104:     32  74  73
1720427725,104:     49  74  73
1720427725,104:     67  74  73
1720427725,104:     81  74  73
1720427725,104:     87  74  73
1720427725,104:     90  74  73
1720427725,104:     99  74  73
1720427725,104:    114  74  73
1720427725,135:    124  74  73
1720427725,135:    118  74  73
1720427725,135:    100  74  73
1720427725,135:     81  74  73
1720427725,135:     69  74  73
1720427725,135:     58  74  73
1720427725,135:     37  74  73
1720427725,135:      2  74  73
1720427725,135:    -38  74  73
1720427725,135:    -71  74  73
1720427725,135:    -95  74  73
1720427725,135:   -113  74  73
1720427725,135:   -132  74  73
1720427725,135:   -153  74  73
1720427725,135:   -173  74  73
1720427725,166:   -189  74  73
1720427725,166:   -204  74  73
1720427725,166:   -218  74  73
1720427725,166:   -229  74  73
1720427725,166:   -236  74  73
1720427725,166:   -242  74  73
1720427725,166:   -251  74  73
1720427725,166:   -262  74  73
1720427725,166:   -269  74  73
1720427725,166:   -269  74  73
1720427725,166:   -264  74  73
1720427725,166:   -260  74  73
1720427725,166:   -260  74  73
1720427725,166:   -261  74  73
1720427725,166:   -260  74  73
1720427725,197:   -254  74  73
1720427725,197:   -247  74  73
1720427725,197:   -240  74  73
1720427725,197:   -234  74  73
1720427725,197:   -230  74  73
1720427725,197:   -227  74  73
1720427725,197:   -225  74  73
1720427725,197:   -227  74  73
1720427725,197:   -232  74  73
1720427725,197:   -235  74  73
1720427725,197:   -233  74  73
1720427725,197:   -225  74  73
1720427725,197:   -215  74  73
1720427725,197:   -211  74  73
1720427725,197:   -214  74  73
1720427725,197:   -219  74  73
1720427725,197:   -218  74  73
1720427725,197:   -214  74  73
1720427725,197:   -213  74  73
1720427725,197:   -218  74  73
1720427725,197:   -226  74  73
1720427725,197:   -229  74  73
1720427725,197:   -225  74  73
1720427725,259:   -214  74  73
1720427725,259:   -204  74  73
1720427725,259:   -197  74  73
1720427725,259:   -192  74  73
1720427725,259:   -190  74  73
1720427725,259:   -189  74  73
1720427725,259:   -186  74  73
1720427725,259:   -181  74  73
1720427725,259:   -175  74  73
1720427725,259:   -173  74  73
1720427725,259:   -174  74  73
1720427725,259:   -176  74  73
1720427725,259:   -174  74  73
1720427725,259:   -170  74  73
1720427725,259:   -169  74  73
1720427725,259:   -175  74  73
1720427725,259:   -183  74  73
1720427725,259:   -183  74  73
1720427725,259:   -172  74  73
1720427725,259:   -156  74  73
1720427725,259:   -145  74  73
1720427725,259:   -145  74  73
1720427725,291:   -152  74  73
1720427725,291:   -154  74  73
1720427725,291:   -146  74  73
1720427725,291:   -136  74  73
1720427725,291:   -134  74  73
1720427725,291:   -143  74  73
1720427725,291:   -152  74  73
1720427725,291:   -147  74  73
1720427725,291:   -126  74  73
1720427725,291:   -102  74  73
1720427725,291:    -91  74  73
1720427725,291:    -96  74  73
1720427725,291:   -105  74  73
1720427725,291:   -105  74  73
1720427725,291:    -94  74  73
1720427725,322:    -85  74  73
1720427725,322:    -87  74  73
1720427725,322:    -97  74  73
1720427725,322:   -105  74  73
1720427725,322:   -103  74  73
1720427725,322:    -96  74  73
1720427725,322:    -89  74  73
1720427725,322:    -86  74  73
1720427725,322:    -85  74  73
1720427725,322:    -83  74  73
1720427725,322:    -81  74  73
1720427725,322:    -82  74  73
1720427725,322:    -84  74  73
1720427725,322:    -82  74  73
1720427725,322:    -76  74  73
1720427725,322:    -71  74  73
1720427725,322:    -73  74  73
1720427725,322:    -79  74  73
1720427725,322:    -85  74  73
1720427725,322:    -83  74  73
1720427725,322:    -75  74  73
1720427725,322:    -67  74  73
1720427725,322:    -66  74  73
1720427725,353:    -70  74  73
1720427725,353:    -74  74  73
1720427725,353:    -75  74  73
1720427725,353:    -74  74  73
1720427725,353:    -74  74  73
1720427725,353:    -79  74  73
1720427725,353:    -88  74  73
1720427725,353:    -96  74  73
1720427725,353:    -98  74  73
1720427725,353:    -93  74  73
1720427725,353:    -87  74  73
1720427725,353:    -84  74  73
1720427725,384:    -84  74  73
1720427725,384:    -84  74  73
1720427725,384:    -83  74  73
1720427725,384:    -81  74  73
1720427725,384:    -81  74  73
1720427725,384:    -80  74  73
1720427725,384:    -79  74  73
1720427725,384:    -80  74  73
1720427725,384:    -82  74  73
1720427725,384:    -82  74  73
1720427725,384:    -78  74  73
1720427725,384:    -71  74  73
1720427725,384:    -69  74  73
1720427725,384:    -74  74  73
1720427725,384:    -83  74  73
1720427725,415:    -87  74  73
1720427725,415:    -84  74  73
1720427725,415:    -78  74  73
1720427725,415:    -75  74  73
1720427725,415:    -75  74  73
1720427725,415:    -75  74  73
1720427725,415:    -76  74  73
1720427725,415:    -75  74  73
1720427725,415:    -72  74  73
1720427725,415:    -67  74  73
1720427725,415:    -63  74  73
1720427725,415:    -64  74  73
1720427725,415:    -70  74  73
1720427725,415:    -73  74  73
1720427725,415:    -69  74  73
1720427725,415:    -61  74  73
1720427725,415:    -59  74  73
1720427725,415:    -66  74  73
1720427725,415:    -75  74  73
1720427725,415:    -77  74  73
1720427725,415:    -70  74  73
1720427725,415:    -61  74  73
1720427725,447:    -59  74  73
1720427725,447:    -60  74  73
1720427725,447:    -57  74  73
1720427725,447:    -49  74  73
1720427725,447:    -43  74  73
1720427725,447:    -45  74  73
1720427725,447:    -55  74  73
1720427725,447:    -65  74  73
1720427725,478:    -72  74  73
1720427725,478:    -77  74  73
1720427725,478:    -83  74  73
1720427725,478:    -89  74  73
1720427725,478:    -88  74  73
1720427725,478:    -80  74  73
1720427725,478:    -72  74  73
1720427725,478:    -70  74  73
1720427725,478:    -73  74  73
1720427725,478:    -74  74  73
1720427725,478:    -68  74  73
1720427725,478:    -58  74  73
1720427725,478:    -52  74  73
1720427725,478:    -57  74  73
1720427725,478:    -70  74  73
1720427725,478:    -80  74  73
1720427725,478:    -84  74  73
1720427725,478:    -85  74  73
1720427725,478:    -89  74  73
1720427725,478:    -99  74  73
1720427725,478:   -111  74  73
1720427725,478:   -117  74  73
1720427725,509:   -114  74  73
1720427725,509:   -109  74  73
1720427725,509:   -105  74  73
1720427725,509:   -104  74  73
1720427725,509:   -100  74  73
1720427725,509:    -91  74  73
1720427725,509:    -84  74  73
1720427725,509:    -82  74  73
1720427725,541:    -87  74  73
1720427725,541:    -90  74  73
1720427725,541:    -85  74  73
1720427725,541:    -75  74  73
1720427725,541:    -69  74  73
1720427725,541:    -69  74  73
1720427725,541:    -72  74  73
1720427725,541:    -75  74  73
1720427725,541:    -79  74  73
1720427725,541:    -83  74  73
1720427725,541:    -88  74  73
1720427725,541:    -89  74  73
1720427725,541:    -87  74  73
1720427725,541:    -88  74  73
1720427725,541:    -91  74  73
1720427725,572:    -92  74  73
1720427725,572:    -83  74  73
1720427725,572:    -68  74  73
1720427725,572:    -58  74  73
1720427725,572:    -54  74  73
1720427725,572:    -50  74  73
1720427725,572:    -40  74  73
1720427725,572:    -29  74  73
1720427725,572:    -26  74  73
1720427725,572:    -34  74  73
1720427725,572:    -42  74  73
1720427725,572:    -41  74  73
1720427725,572:    -36  74  73
1720427725,572:    -33  74  73
1720427725,572:    -32  74  73
1720427725,572:    -28  74  73
1720427725,572:    -13  74  73
1720427725,572:     12  74  73
1720427725,572:     38  74  73
1720427725,572:     63  74  73
1720427725,572:     84  74  73
1720427725,572:     95  74  73
1720427725,604:     89  74  73
1720427725,604:     69  74  73
1720427725,604:     47  74  73
1720427725,604:     28  74  73
1720427725,604:     11  74  73
1720427725,604:    -14  74  73
1720427725,604:    -48  74  73
1720427725,604:    -80  74  73
1720427725,604:    -98  74  73
1720427725,604:    -97  74  73
1720427725,604:    -88  74  73
1720427725,604:    -82  74  73
1720427725,604:    -81  74  73
1720427725,604:    -83  74  73
1720427725,604:    -89  74  73
1720427725,635:    -96  74  73
1720427725,635:   -101  74  73
1720427725,635:   -101  74  73
1720427725,635:    -96  74  73
1720427725,635:    -93  74  73
1720427725,635:    -99  74  73
1720427725,635:   -112  74  73
1720427725,635:   -119  74  73
1720427725,635:   -114  74  73
1720427725,635:   -100  74  73
1720427725,635:    -92  74  73
1720427725,635:    -95  74  73
1720427725,635:   -102  74  73
1720427725,635:   -103  74  73
1720427725,635:    -91  74  73
1720427725,667:    -74  74  73
1720427725,667:    -66  74  73
1720427725,667:    -70  74  73
1720427725,667:    -82  74  73
1720427725,667:    -91  74  73
1720427725,667:    -96  74  73
1720427725,667:   -104  74  73
1720427725,667:   -117  74  73
1720427725,667:   -128  74  73
1720427725,667:   -123  74  73
1720427725,667:    -99  74  73
1720427725,667:    -74  74  73
1720427725,667:    -61  74  73
1720427725,667:    -53  74  73
1720427725,667:    -29  74  73
1720427725,699:      4  74  73
1720427725,699:      6  74  73
1720427725,699:    -57  74  73
1720427725,699:   -168  74  73
1720427725,699:   -275  74  73
1720427725,699:   -362  74  73
1720427725,699:   -468  74  73
1720427725,699:   -623  74  73
1720427725,699:   -777  74  73
1720427725,699:   -814  74  73
1720427725,699:   -667  74  73
1720427725,699:   -369  74  73
1720427725,699:     52  74  73
1720427725,699:    652  74  73
1720427725,699:   1535  74  73
1720427725,699:   2711  74  73
1720427725,699:   4069  74  73
1720427725,699:   5488  74  73
1720427725,699:   6935  74  73
1720427725,699:   8403  74  73
1720427725,699:   9797  74  73
1720427725,699:  10949  74  73
1720427725,699:  11754  74  73
1720427725,731:  12187  73  73
1720427725,731:  12162  73  73
1720427725,731:  11469  73  73
1720427725,731:   9973  73  73
1720427725,731:   7883  73  73
1720427725,731:   5702  73  73
1720427725,731:   3825  73  73
1720427725,763:   2247  73  73
1720427725,763:    726  73  73
1720427725,763:   -798  73  73
1720427725,763:  -2031  73  73
1720427725,763:  -2624  73  73
1720427725,763:  -2552  73  73
1720427725,763:  -2146  73  73
1720427725,763:  -1783  73  73
1720427725,763:  -1615  73  73
1720427725,763:  -1588  73  73
1720427725,763:  -1624  73  73
1720427725,763:  -1713  73  73
1720427725,763:  -1872  73  73
1720427725,763:  -2076  73  73
1720427725,763:  -2279  73  73
1720427725,763:  -2450  73  73
1720427725,763:  -2588  73  73
1720427725,763:  -2679  73  73
1720427725,763:  -2684  73  73
1720427725,763:  -2592  73  73
1720427725,763:  -2430  73  73
1720427725,763:  -2256  73  73
1720427725,763:  -2132  73  73
1720427725,794:  -2099  73  73
1720427725,794:  -2153  73  73
1720427725,794:  -2245  73  73
1720427725,794:  -2309  73  73
1720427725,794:  -2302  73  73
1720427725,794:  -2223  73  73
1720427725,794:  -2101  73  73
1720427725,794:  -1978  73  73
1720427725,794:  -1880  73  73
1720427725,794:  -1821  73  73
1720427725,794:  -1802  73  73
1720427725,794:  -1816  73  73
1720427725,794:  -1842  73  73
1720427725,794:  -1849  73  73
1720427725,794:  -1817  73  73
1720427725,825:  -1750  73  73
1720427725,825:  -1669  73  73
1720427725,825:  -1598  73  73
1720427725,825:  -1545  73  73
1720427725,825:  -1510  73  73
1720427725,825:  -1490  73  73
1720427725,825:  -1480  73  73
1720427725,825:  -1468  73  73
1720427725,825:  -1442  73  73
1720427725,825:  -1400  73  73
1720427725,825:  -1355  73  73
1720427725,825:  -1319  73  73
1720427725,825:  -1293  73  73
1720427725,825:  -1263  73  73
1720427725,825:  -1223  73  73
1720427725,856:  -1185  73  73
1720427725,856:  -1163  73  73
1720427725,856:  -1153  73  73
1720427725,856:  -1138  73  73
1720427725,856:  -1109  73  73
1720427725,856:  -1072  73  73
1720427725,856:  -1043  73  73
1720427725,856:  -1025  73  73
1720427725,856:  -1013  73  73
1720427725,856:   -996  73  73
1720427725,856:   -976  73  73
1720427725,856:   -957  73  73
1720427725,856:   -940  73  73
1720427725,856:   -922  73  73
1720427725,856:   -902  73  73
1720427725,888:   -880  73  73
1720427725,888:   -858  73  73
1720427725,888:   -835  73  73
1720427725,888:   -810  73  73
1720427725,888:   -784  73  73
1720427725,888:   -763  73  73
1720427725,888:   -746  73  73
1720427725,888:   -729  73  73
1720427725,888:   -707  73  73
1720427725,888:   -683  73  73
1720427725,888:   -661  73  73
1720427725,888:   -642  73  73
1720427725,888:   -624  73  73
1720427725,888:   -606  73  73
1720427725,888:   -585  73  73
1720427725,920:   -563  73  73
1720427725,920:   -539  73  73
1720427725,920:   -515  73  73
1720427725,920:   -489  73  73
1720427725,920:   -463  73  73
1720427725,920:   -437  73  73
1720427725,920:   -410  73  73
1720427725,920:   -380  73  73
1720427725,920:   -347  73  73
1720427725,920:   -314  73  73
1720427725,920:   -280  73  73
1720427725,920:   -250  73  73
1720427725,920:   -222  73  73
1720427725,920:   -192  73  73
1720427725,920:   -163  73  73
1720427725,920:   -140  73  73
1720427725,920:   -127  73  73
1720427725,920:   -118  73  73
1720427725,920:   -105  73  73
1720427725,920:    -86  73  73
1720427725,920:    -65  73  73
1720427725,920:    -46  73  73
1720427725,951:    -28  73  73
1720427725,951:     -6  73  73
1720427725,951:     22  73  73
1720427725,951:     48  73  73
1720427725,951:     64  73  73
1720427725,951:     70  73  73
1720427725,951:     68  73  73
1720427725,951:     63  73  73
1720427725,951:     56  73  73
1720427725,951:     47  73  73
1720427725,951:     34  73  73
1720427725,951:     21  73  73
1720427725,951:      7  73  73
1720427725,951:    -10  73  73
1720427725,951:    -32  73  73
1720427725,983:    -54  73  73
1720427725,983:    -75  73  73
1720427725,983:    -93  73  73
1720427725,983:   -110  73  73
1720427725,983:   -124  73  73
1720427725,983:   -135  73  73
1720427725,983:   -143  73  73
1720427725,983:   -150  73  73
1720427725,983:   -163  73  73
1720427725,983:   -178  73  73
1720427725,983:   -188  73  73
1720427725,983:   -187  73  73
1720427725,983:   -183  73  73
1720427725,983:   -188  73  73
1720427725,983:   -205  73  73
1720427726,015:   -223  73  73
1720427726,015:   -225  73  73
1720427726,015:   -208  73  73
1720427726,015:   -188  73  73
1720427726,015:   -182  73  73
1720427726,015:   -189  73  73
1720427726,015:   -195  73  73
1720427726,015:   -189  73  73
1720427726,015:   -176  73  73
1720427726,015:   -167  73  73
1720427726,015:   -166  73  73
1720427726,015:   -167  73  73
1720427726,015:   -164  73  73
1720427726,015:   -161  73  73
1720427726,015:   -166  73  73
1720427726,047:   -176  73  73
1720427726,047:   -181  73  73
1720427726,047:   -172  73  73
1720427726,047:   -156  73  73
1720427726,047:   -146  73  73
1720427726,047:   -147  73  73
1720427726,047:   -150  73  73
1720427726,047:   -143  73  73
1720427726,047:   -125  73  73
1720427726,047:   -107  73  73
1720427726,047:    -98  73  73
1720427726,047:   -101  73  73
1720427726,047:   -110  73  73
1720427726,047:   -116  73  73
1720427726,047:   -117  73  73
1720427726,079:   -116  73  73
1720427726,079:   -115  73  73
1720427726,079:   -113  73  73
1720427726,079:   -105  73  73
1720427726,079:    -93  73  73
1720427726,079:    -85  73  73
1720427726,079:    -84  73  73
1720427726,079:    -85  73  73
1720427726,079:    -82  73  73
1720427726,079:    -68  73  73
1720427726,079:    -53  73  73
1720427726,079:    -45  73  73
1720427726,079:    -44  73  73
1720427726,079:    -42  73  73
1720427726,079:    -33  73  73
1720427726,111:    -20  73  73
1720427726,111:    -10  73  73
1720427726,111:     -5  73  73
1720427726,111:     -1  73  73
1720427726,111:      4  73  73
1720427726,111:      7  73  73
1720427726,111:      7  73  73
1720427726,111:      9  73  73
1720427726,111:     18  73  73
1720427726,111:     31  73  73
1720427726,111:     38  73  73
1720427726,111:     38  73  73
1720427726,111:     34  73  73
1720427726,111:     34  73  73
1720427726,111:     40  73  73
1720427726,111:     46  73  73
1720427726,111:     47  73  73
1720427726,111:     50  73  73
1720427726,111:     59  73  73
1720427726,111:     72  73  73
1720427726,111:     79  73  73
1720427726,111:     75  73  73
1720427726,111:     67  73  73
1720427726,143:     62  73  73
1720427726,143:     64  73  73
1720427726,143:     65  73  73
1720427726,143:     61  73  73
1720427726,143:     55  73  73
1720427726,143:     55  73  73
1720427726,143:     60  73  73
1720427726,143:     64  73  73
1720427726,143:     66  73  73
1720427726,143:     68  73  73
1720427726,143:     75  73  73
1720427726,143:     84  73  73
1720427726,143:     90  73  73
1720427726,143:     89  73  73
1720427726,143:     87  73  73
1720427726,175:     93  73  73
1720427726,175:    107  73  73
1720427726,175:    116  73  73
1720427726,175:    113  73  73
1720427726,175:     99  73  73
1720427726,175:     89  73  73
1720427726,175:     89  73  73
1720427726,175:     96  73  73
1720427726,175:     99  73  73
1720427726,175:     94  73  73
1720427726,175:     88  73  73
1720427726,175:     88  73  73
1720427726,175:     93  73  73
1720427726,175:     98  73  73
1720427726,175:    100  73  73
1720427726,206:    101  73  73
1720427726,206:    105  73  73
1720427726,206:    110  73  73
1720427726,206:    115  73  73
1720427726,206:    117  73  73
1720427726,206:    118  73  73
1720427726,206:    120  73  73
1720427726,206:    121  73  73
1720427726,206:    115  73  73
1720427726,206:    103  73  73
1720427726,206:     90  73  73
1720427726,206:     84  73  73
1720427726,206:     88  73  73
1720427726,206:     96  73  73
1720427726,206:    103  73  73
1720427726,236:    108  73  73
1720427726,236:    115  73  73
1720427726,236:    123  73  73
1720427726,236:    131  73  73
1720427726,236:    133  73  73
1720427726,236:    131  73  73
1720427726,236:    127  73  73
1720427726,236:    123  73  73
1720427726,236:    121  73  73
1720427726,236:    119  73  73
1720427726,236:    117  73  73
1720427726,236:    118  73  73
1720427726,236:    118  73  73
1720427726,236:    113  73  73
1720427726,236:    104  73  73
1720427726,267:     98  73  73
1720427726,267:     96  73  73
1720427726,267:     97  73  73
1720427726,267:     94  73  73
1720427726,267:     88  73  73
1720427726,267:     86  73  73
1720427726,267:     92  73  73
1720427726,267:    105  73  73
1720427726,267:    114  73  73
1720427726,267:    115  73  73
1720427726,267:    108  73  73
1720427726,267:     99  73  73
1720427726,267:     90  73  73
1720427726,267:     85  73  73
1720427726,267:     81  73  73
1720427726,298:     80  73  73
1720427726,298:     79  73  73
1720427726,298:     77  73  73
1720427726,298:     73  73  73
1720427726,298:     72  73  73
1720427726,298:     76  73  73
1720427726,298:     84  73  73
1720427726,298:     93  73  73
1720427726,298:    100  73  73
1720427726,298:    104  73  73
1720427726,298:    108  73  73
1720427726,298:    116  73  73
1720427726,298:    126  73  73
1720427726,298:    132  73  73
1720427726,298:    131  73  73
1720427726,330:    124  73  73
1720427726,330:    116  73  73
1720427726,330:    112  73  73
1720427726,330:    113  73  73
1720427726,330:    112  73  73
1720427726,330:    105  73  73
1720427726,330:     96  73  73
1720427726,330:     95  73  73
1720427726,330:    105  73  73
1720427726,330:    118  73  73
1720427726,330:    122  73  73
1720427726,330:    113  73  73
1720427726,330:     99  73  73
1720427726,330:     92  73  73
1720427726,330:     97  73  73
1720427726,330:    104  73  73
1720427726,330:    106  73  73
1720427726,330:    103  73  73
1720427726,330:    101  73  73
1720427726,330:    103  73  73
1720427726,330:    106  73  73
1720427726,330:    105  73  73
1720427726,362:    102  73  73
1720427726,362:     97  73  73
1720427726,362:     93  73  73
1720427726,362:     85  73  73
1720427726,362:     79  73  73
1720427726,362:     79  73  73
1720427726,362:     89  73  73
1720427726,362:    101  73  73
1720427726,362:    107  73  73
1720427726,362:    108  73  73
1720427726,362:    111  73  73
1720427726,362:    119  73  73
1720427726,362:    128  73  73
1720427726,393:    129  73  73
1720427726,393:    125  73  73
1720427726,393:    123  73  73
1720427726,393:    124  73  73
1720427726,393:    120  73  73
1720427726,393:    107  73  73
1720427726,393:     96  73  73
1720427726,425:     96  73  73
1720427726,425:    106  73  73
1720427726,425:    112  73  73
1720427726,425:    106  73  73
1720427726,425:     98  73  73
1720427726,425:    106  73  73
1720427726,425:    131  73  73
1720427726,425:    153  73  73
1720427726,425:    159  73  73
1720427726,425:    154  73  73
1720427726,425:    152  73  73
1720427726,425:    161  73  73
1720427726,425:    167  73  73
1720427726,425:    161  73  73
1720427726,425:    144  73  73
1720427726,425:    131  73  73
1720427726,425:    130  73  73
1720427726,425:    133  73  73
1720427726,425:    135  73  73
1720427726,425:    142  73  73
1720427726,425:    161  73  73
1720427726,425:    192  73  73
1720427726,425:    221  73  73
1720427726,457:    237  73  73
1720427726,457:    239  73  73
1720427726,457:    238  73  73
1720427726,457:    238  73  73
1720427726,457:    234  73  73
1720427726,457:    217  73  73
1720427726,457:    187  73  73
1720427726,457:    152  73  73
1720427726,457:    125  73  73
1720427726,457:    107  73  73
1720427726,457:     96  73  73
1720427726,457:     89  73  73
1720427726,457:     88  73  73
1720427726,457:     96  73  73
1720427726,457:    106  73  73
1720427726,489:    109  73  73
1720427726,489:    100  73  73
1720427726,489:     85  73  73
1720427726,489:     73  73  73
1720427726,489:     67  73  73
1720427726,489:     63  73  73
1720427726,489:     55  73  73
1720427726,489:     49  73  73
1720427726,489:     51  73  73
1720427726,489:     60  73  73
1720427726,489:     66  73  73
1720427726,489:     66  73  73
1720427726,489:     66  73  73
1720427726,489:     71  73  73
1720427726,489:     79  73  73
1720427726,521:     79  73  73
1720427726,521:     69  73  73
1720427726,521:     55  73  73
1720427726,521:     49  73  73
1720427726,521:     54  73  73
1720427726,521:     60  73  73
1720427726,521:     57  73  73
1720427726,521:     44  73  73
1720427726,521:     25  73  73
1720427726,521:      9  73  73
1720427726,521:      8  73  73
1720427726,521:     25  73  73
1720427726,521:     54  73  73
1720427726,521:     77  73  73
1720427726,521:     90  73  73
1720427726,553:    104  73  73
1720427726,553:    126  73  73
1720427726,553:    133  73  73
1720427726,553:     90  73  73
1720427726,553:     -9  73  73
1720427726,553:   -127  73  73
1720427726,553:   -234  73  73
1720427726,553:   -332  73  73
1720427726,553:   -444  73  73
1720427726,553:   -560  73  73
1720427726,553:   -615  73  73
1720427726,553:   -552  73  73
1720427726,553:   -360  73  73
1720427726,553:    -15  73  73
1720427726,553:    551  73  73
1720427726,553:   1400  73  73
1720427726,553:   2505  73  73
1720427726,553:   3775  73  73
1720427726,553:   5157  73  73
1720427726,553:   6664  73  73
1720427726,553:   8253  73  73
1720427726,553:   9735  73  73
1720427726,585:  10903  71  72
1720427726,585:  11702  71  72
1720427726,585:  12192  71  72
1720427726,585:  12286  71  72
1720427726,585:  11660  71  72
1720427726,585:  10079  71  72
1720427726,585:   7788  71  72
1720427726,585:   5444  71  72
1720427726,585:   3562  71  72
1720427726,585:   2101  71  72
1720427726,585:    679  71  72
1720427726,585:   -848  71  72
1720427726,585:  -2137  71  72
1720427726,585:  -2716  71  72
1720427726,585:  -2512  71  72
1720427726,617:  -1921  71  72
1720427726,617:  -1422  71  72
1720427726,617:  -1215  71  72
1720427726,617:  -1218  71  72
1720427726,617:  -1301  71  72
1720427726,617:  -1426  71  72
1720427726,617:  -1606  71  72
1720427726,617:  -1827  71  72
1720427726,617:  -2046  71  72
1720427726,617:  -2230  71  72
1720427726,617:  -2377  71  72
1720427726,617:  -2470  71  72
1720427726,617:  -2471  71  72
1720427726,617:  -2367  71  72
1720427726,617:  -2192  71  72
1720427726,649:  -2005  71  72
1720427726,649:  -1874  71  72
1720427726,649:  -1843  71  72
1720427726,649:  -1913  71  72
1720427726,649:  -2033  71  72
1720427726,649:  -2127  71  72
1720427726,649:  -2140  71  72
1720427726,649:  -2058  71  72
1720427726,649:  -1916  71  72
1720427726,649:  -1766  71  72
1720427726,649:  -1648  71  72
1720427726,649:  -1580  71  72
1720427726,649:  -1563  71  72
1720427726,649:  -1582  71  72
1720427726,649:  -1610  71  72
1720427726,649:  -1614  71  72
1720427726,649:  -1577  71  72
1720427726,649:  -1500  71  72
1720427726,649:  -1408  71  72
1720427726,649:  -1326  71  72
1720427726,649:  -1268  71  72
1720427726,649:  -1233  71  72
1720427726,649:  -1214  71  72
1720427726,681:  -1204  71  72
1720427726,681:  -1196  71  72
1720427726,681:  -1180  71  72
1720427726,681:  -1149  71  72
1720427726,681:  -1102  71  72
1720427726,681:  -1049  71  72
1720427726,681:  -1003  71  72
1720427726,713:   -970  71  72
1720427726,713:   -945  71  72
1720427726,713:   -921  71  72
1720427726,713:   -896  71  72
1720427726,713:   -870  71  72
1720427726,713:   -843  71  72
1720427726,713:   -814  71  72
1720427726,713:   -786  71  72
1720427726,713:   -757  71  72
1720427726,713:   -730  71  72
1720427726,713:   -703  71  72
1720427726,713:   -678  71  72
1720427726,713:   -659  71  72
1720427726,713:   -648  71  72
1720427726,713:   -641  71  72
1720427726,744:   -630  71  72
1720427726,744:   -613  71  72
1720427726,744:   -593  71  72
1720427726,744:   -575  71  72
1720427726,744:   -562  71  72
1720427726,744:   -550  71  72
1720427726,744:   -538  71  72
1720427726,744:   -522  71  72
1720427726,744:   -505  71  72
1720427726,744:   -485  71  72
1720427726,744:   -464  71  72
1720427726,744:   -443  71  72
1720427726,744:   -419  71  72
1720427726,744:   -388  71  72
1720427726,744:   -353  71  72
1720427726,744:   -319  71  72
1720427726,744:   -289  71  72
1720427726,744:   -261  71  72
1720427726,744:   -232  71  72
1720427726,744:   -201  71  72
1720427726,744:   -171  71  72
1720427726,744:   -144  71  72
1720427726,744:   -120  71  72
1720427726,776:    -95  71  72
1720427726,776:    -68  71  72
1720427726,776:    -39  71  72
1720427726,776:    -11  71  72
1720427726,776:     17  71  72
1720427726,776:     43  71  72
1720427726,776:     66  71  72
1720427726,776:     90  71  72
1720427726,776:    116  71  72
1720427726,776:    144  71  72
1720427726,776:    175  71  72
1720427726,776:    201  71  72
1720427726,776:    220  71  72
1720427726,776:    230  71  72
1720427726,776:    235  71  72
1720427726,807:    241  71  72
1720427726,807:    249  71  72
1720427726,807:    259  71  72
1720427726,807:    263  71  72
1720427726,807:    258  71  72
1720427726,807:    248  71  72
1720427726,807:    242  71  72
1720427726,807:    241  71  72
1720427726,807:    235  71  72
1720427726,807:    213  71  72
1720427726,807:    174  71  72
1720427726,807:    131  71  72
1720427726,807:     95  71  72
1720427726,807:     68  71  72
1720427726,807:     38  71  72
1720427726,837:     -1  71  72
1720427726,837:    -45  71  72
1720427726,837:    -83  71  72
1720427726,837:   -111  71  72
1720427726,837:   -129  71  72
1720427726,837:   -145  71  72
1720427726,837:   -161  71  72
1720427726,837:   -175  71  72
1720427726,837:   -187  71  72
1720427726,837:   -196  71  72
1720427726,837:   -204  71  72
1720427726,837:   -214  71  72
1720427726,837:   -225  71  72
1720427726,837:   -235  71  72
1720427726,837:   -241  71  72
1720427726,869:   -247  71  72
1720427726,869:   -255  71  72
1720427726,869:   -264  71  72
1720427726,869:   -270  71  72
1720427726,869:   -270  71  72
1720427726,869:   -264  71  72
1720427726,869:   -256  71  72
1720427726,869:   -250  71  72
1720427726,869:   -247  71  72
1720427726,869:   -247  71  72
1720427726,869:   -248  71  72
1720427726,869:   -248  71  72
1720427726,869:   -245  71  72
1720427726,869:   -239  71  72
1720427726,869:   -232  71  72
1720427726,900:   -224  71  72
1720427726,900:   -217  71  72
1720427726,900:   -212  71  72
1720427726,900:   -209  71  72
1720427726,900:   -208  71  72
1720427726,900:   -205  71  72
1720427726,900:   -200  71  72
1720427726,900:   -194  71  72
1720427726,900:   -195  71  72
1720427726,900:   -205  71  72
1720427726,900:   -216  71  72
1720427726,900:   -214  71  72
1720427726,900:   -198  71  72
1720427726,900:   -179  71  72
1720427726,900:   -168  71  72
1720427726,931:   -166  71  72
1720427726,931:   -163  71  72
1720427726,931:   -154  71  72
1720427726,931:   -143  71  72
1720427726,931:   -138  71  72
1720427726,931:   -142  71  72
1720427726,931:   -147  71  72
1720427726,931:   -144  71  72
1720427726,931:   -134  71  72
1720427726,931:   -122  71  72
1720427726,931:   -115  71  72
1720427726,931:   -115  71  72
1720427726,931:   -113  71  72
1720427726,931:   -103  71  72
1720427726,931:    -84  71  72
1720427726,931:    -65  71  72
1720427726,931:    -56  71  72
1720427726,931:    -60  71  72
1720427726,931:    -71  71  72
1720427726,931:    -79  71  72
1720427726,931:    -79  71  72
1720427726,931:    -75  71  72
1720427726,963:    -73  71  72
1720427726,963:    -75  71  72
1720427726,963:    -76  71  72
1720427726,963:    -71  71  72
1720427726,963:    -58  71  72
1720427726,963:    -41  71  72
1720427726,963:    -31  71  72
1720427726,963:    -31  71  72
1720427726,963:    -36  71  72
1720427726,963:    -40  71  72
1720427726,963:    -42  71  72
1720427726,963:    -48  71  72
1720427726,963:    -62  71  72
1720427726,963:    -75  71  72
1720427726,963:    -73  71  72
1720427726,995:    -55  71  72
1720427726,995:    -36  71  72
1720427726,995:    -31  71  72
1720427726,995:    -37  71  72
1720427726,995:    -40  71  72
1720427726,995:    -30  71  72
1720427726,995:    -16  71  72
1720427726,995:    -11  71  72
1720427726,995:    -14  71  72
1720427726,995:    -16  71  72
1720427726,995:     -9  71  72
1720427726,995:     -1  71  72
1720427726,995:     -3  71  72
1720427726,995:    -11  71  72
1720427726,995:    -13  71  72
1720427727,027:     -6  71  72
1720427727,027:      3  71  72
1720427727,027:      2  71  72
1720427727,027:     -8  71  72
1720427727,027:    -18  71  72
1720427727,027:    -14  71  72
1720427727,027:     -1  71  72
1720427727,027:      9  71  72
1720427727,027:     10  71  72
1720427727,027:      6  71  72
1720427727,027:      5  71  72
1720427727,027:      8  71  72
1720427727,027:      9  71  72
1720427727,027:      6  71  72
1720427727,027:      0  71  72
1720427727,058:      1  71  72
1720427727,058:      7  71  72
1720427727,058:     10  71  72
1720427727,058:     10  71  72
1720427727,058:     11  71  72
1720427727,058:     19  71  72
1720427727,058:     30  71  72
1720427727,058:     36  71  72
1720427727,058:     32  71  72
1720427727,058:     27  71  72
1720427727,058:     30  71  72
1720427727,058:     39  71  72
1720427727,058:     43  71  72
1720427727,058:     38  71  72
1720427727,058:     29  71  72
1720427727,090:     27  71  72
1720427727,090:     32  71  72
1720427727,090:     35  71  72
1720427727,090:     30  71  72
1720427727,090:     20  71  72
1720427727,090:     13  71  72
1720427727,090:     14  71  72
1720427727,090:     18  71  72
1720427727,121:     18  71  72
1720427727,121:     11  71  72
1720427727,121:      4  71  72
1720427727,121:      4  71  72
1720427727,121:     11  71  72
1720427727,121:     20  71  72
1720427727,121:     24  71  72
1720427727,121:     26  71  72
1720427727,121:     31  71  72
1720427727,121:     41  71  72
1720427727,121:     51  71  72
1720427727,121:     55  71  72
1720427727,121:     52  71  72
1720427727,121:     43  71  72
1720427727,121:     34  71  72
1720427727,121:     27  71  72
1720427727,121:     24  71  72
1720427727,121:     26  71  72
1720427727,121:     32  71  72
1720427727,121:     37  71  72
1720427727,121:     37  71  72
1720427727,121:     34  71  72
1720427727,152:     39  71  72
1720427727,152:     52  71  72
1720427727,152:     66  71  72
1720427727,152:     72  71  72
1720427727,152:     67  71  72
1720427727,152:     58  71  72
1720427727,152:     56  71  72
1720427727,152:     63  71  72
1720427727,152:     71  71  72
1720427727,152:     73  71  72
1720427727,152:     65  71  72
1720427727,152:     53  71  72
1720427727,152:     41  71  72
1720427727,152:     36  71  72
1720427727,152:     38  71  72
1720427727,152:     44  71  72
1720427727,152:     53  71  72
1720427727,152:     57  71  72
1720427727,152:     55  71  72
1720427727,152:     47  71  72
1720427727,152:     41  71  72
1720427727,152:     42  71  72
1720427727,152:     48  71  72
1720427727,183:     52  71  72
1720427727,183:     49  71  72
1720427727,183:     42  71  72
1720427727,183:     35  71  72
1720427727,183:     35  71  72
1720427727,183:     40  71  72
1720427727,183:     45  71  72
1720427727,183:     50  71  72
1720427727,183:     55  71  72
1720427727,183:     61  71  72
1720427727,183:     68  71  72
1720427727,183:     77  71  72
1720427727,183:     89  71  72
1720427727,183:    105  71  72
1720427727,183:    122  71  72
1720427727,214:    133  71  72
1720427727,214:    130  71  72
1720427727,214:    114  71  72
1720427727,214:     96  71  72
1720427727,214:     84  71  72
1720427727,214:     84  71  72
1720427727,214:     93  71  72
1720427727,214:    106  71  72
1720427727,214:    120  71  72
1720427727,214:    139  71  72
1720427727,214:    168  71  72
1720427727,214:    203  71  72
1720427727,214:    232  71  72
1720427727,214:    244  71  72
1720427727,214:    235  71  72
1720427727,246:    213  71  72
1720427727,246:    191  71  72
1720427727,246:    174  71  72
1720427727,246:    157  71  72
1720427727,246:    136  71  72
1720427727,246:    112  71  72
1720427727,246:     88  71  72
1720427727,278:     70  71  72
1720427727,278:     55  71  72
1720427727,278:     42  71  72
1720427727,278:     33  71  72
1720427727,278:     29  71  72
1720427727,278:     25  71  72
1720427727,278:     13  71  72
1720427727,278:     -4  71  72
1720427727,278:    -16  71  72
1720427727,278:    -15  71  72
1720427727,278:     -5  71  72
1720427727,278:     -1  71  72
1720427727,278:     -9  71  72
1720427727,278:    -21  71  72
1720427727,278:    -22  71  72
1720427727,310:    -12  71  72
1720427727,310:     -3  71  72
1720427727,310:     -3  71  72
1720427727,310:     -9  71  72
1720427727,310:    -11  71  72
1720427727,310:     -8  71  72
1720427727,310:     -5  71  72
1720427727,310:     -5  71  72
1720427727,310:     -6  71  72
1720427727,310:      0  71  72
1720427727,310:      7  71  72
1720427727,310:      9  71  72
1720427727,310:      3  71  72
1720427727,310:     -1  71  72
1720427727,310:      1  71  72
1720427727,342:      3  71  72
1720427727,342:      1  71  72
1720427727,342:      0  71  72
1720427727,342:      6  71  72
1720427727,342:     18  71  72
1720427727,342:     30  71  72
1720427727,342:     44  71  72
1720427727,342:     63  71  72
1720427727,342:     72  71  72
1720427727,342:     40  71  72
1720427727,342:    -47  71  72
1720427727,342:   -162  71  72
1720427727,342:   -268  71  72
1720427727,342:   -360  71  72
1720427727,342:   -465  71  72
1720427727,342:   -587  71  72
1720427727,342:   -670  71  72
1720427727,342:   -645  71  72
1720427727,342:   -486  71  72
1720427727,342:   -182  71  72
1720427727,342:    320  71  72
1720427727,342:   1089  71  72
1720427727,342:   2128  71  72
1720427727,373:   3358  71  72
1720427727,373:   4710  71  72
1720427727,373:   6179  71  72
1720427727,373:   7739  71  72
1720427727,373:   9231  71  72
1720427727,373:  10441  71  72
1720427727,373:  11274  71  72
1720427727,373:  11784  71  72
1720427727,373:  11937  71  72
1720427727,373:  11462  71  72
1720427727,373:  10080  71  72
1720427727,373:   7916  71  72
1720427727,404:   5563  76  74
1720427727,404:   3611  76  74
1720427727,404:   2146  76  74
1720427727,404:    818  76  74
1720427727,404:   -616  76  74
1720427727,404:  -1927  76  74
1720427727,404:  -2641  76  74
1720427727,404:  -2569  76  74
1720427727,404:  -2015  76  74
1720427727,404:  -1468  76  74
1720427727,404:  -1204  76  74
1720427727,404:  -1187  76  74
1720427727,404:  -1274  76  74
1720427727,404:  -1396  76  74
1720427727,404:  -1561  76  74
1720427727,435:  -1763  76  74
1720427727,435:  -1970  76  74
1720427727,435:  -2150  76  74
1720427727,435:  -2305  76  74
1720427727,435:  -2424  76  74
1720427727,435:  -2460  76  74
1720427727,435:  -2378  76  74
1720427727,435:  -2201  76  74
1720427727,435:  -2000  76  74
1720427727,435:  -1859  76  74
1720427727,435:  -1821  76  74
1720427727,435:  -1876  76  74
1720427727,435:  -1972  76  74
1720427727,435:  -2056  76  74
1720427727,435:  -2085  76  74
1720427727,435:  -2039  76  74
1720427727,435:  -1927  76  74
1720427727,435:  -1784  76  74
1720427727,435:  -1658  76  74
1720427727,435:  -1582  76  74
1720427727,435:  -1564  76  74
1720427727,435:  -1583  76  74
1720427727,467:  -1610  76  74
1720427727,467:  -1619  76  74
1720427727,467:  -1594  76  74
1720427727,467:  -1534  76  74
1720427727,467:  -1455  76  74
1720427727,467:  -1380  76  74
1720427727,467:  -1325  76  74
1720427727,467:  -1292  76  74
1720427727,467:  -1273  76  74
1720427727,467:  -1260  76  74
1720427727,467:  -1246  76  74
1720427727,467:  -1227  76  74
1720427727,467:  -1199  76  74
1720427727,467:  -1160  76  74
1720427727,467:  -1116  76  74
1720427727,499:  -1072  76  74
1720427727,499:  -1032  76  74
1720427727,499:   -994  76  74
1720427727,499:   -961  76  74
1720427727,499:   -937  76  74
1720427727,499:   -921  76  74
1720427727,499:   -900  76  74
1720427727,499:   -870  76  74
1720427727,499:   -833  76  74
1720427727,499:   -802  76  74
1720427727,499:   -781  76  74
1720427727,499:   -766  76  74
1720427727,499:   -745  76  74
1720427727,499:   -714  76  74
1720427727,499:   -683  76  74
1720427727,530:   -658  76  74
1720427727,530:   -638  76  74
1720427727,530:   -618  76  74
1720427727,530:   -592  76  74
1720427727,530:   -565  76  74
1720427727,530:   -540  76  74
1720427727,530:   -523  76  74
1720427727,530:   -509  76  74
1720427727,530:   -492  76  74
1720427727,530:   -472  76  74
1720427727,530:   -451  76  74
1720427727,530:   -433  76  74
1720427727,530:   -417  76  74
1720427727,530:   -398  76  74
1720427727,530:   -370  76  74
1720427727,561:   -334  76  74
1720427727,561:   -295  76  74
1720427727,561:   -260  76  74
1720427727,561:   -230  76  74
1720427727,561:   -206  76  74
1720427727,561:   -186  76  74
1720427727,561:   -166  76  74
1720427727,561:   -142  76  74
1720427727,561:   -117  76  74
1720427727,561:    -91  76  74
1720427727,561:    -69  76  74
1720427727,561:    -48  76  74
1720427727,561:    -22  76  74
1720427727,561:     16  76  74
1720427727,561:     59  76  74
1720427727,592:     93  76  74
1720427727,592:    111  76  74
1720427727,592:    118  76  74
1720427727,592:    128  76  74
1720427727,592:    147  76  74
1720427727,592:    168  76  74
1720427727,592:    182  76  74
1720427727,592:    189  76  74
1720427727,592:    198  76  74
1720427727,592:    214  76  74
1720427727,592:    229  76  74
1720427727,592:    238  76  74
1720427727,592:    236  76  74
1720427727,592:    228  76  74
1720427727,592:    218  76  74
1720427727,623:    203  76  74
1720427727,623:    178  76  74
1720427727,623:    142  76  74
1720427727,623:    103  76  74
1720427727,623:     69  76  74
1720427727,623:     38  76  74
1720427727,623:      4  76  74
1720427727,623:    -36  76  74
1720427727,623:    -79  76  74
1720427727,623:   -117  76  74
1720427727,623:   -150  76  74
1720427727,623:   -180  76  74
1720427727,623:   -211  76  74
1720427727,623:   -240  76  74
1720427727,623:   -266  76  74
1720427727,623:   -287  76  74
1720427727,623:   -308  76  74
1720427727,623:   -330  76  74
1720427727,623:   -351  76  74
1720427727,623:   -364  76  74
1720427727,623:   -368  76  74
1720427727,623:   -369  76  74
1720427727,623:   -373  76  74
1720427727,655:   -378  76  74
1720427727,655:   -379  76  74
1720427727,655:   -372  76  74
1720427727,655:   -363  76  74
1720427727,655:   -360  76  74
1720427727,655:   -365  76  74
1720427727,655:   -371  76  74
1720427727,655:   -370  76  74
1720427727,655:   -363  76  74
1720427727,655:   -353  76  74
1720427727,655:   -344  76  74
1720427727,655:   -335  76  74
1720427727,655:   -327  76  74
1720427727,655:   -321  76  74
1720427727,655:   -316  76  74
1720427727,687:   -310  76  74
1720427727,687:   -306  76  74
1720427727,687:   -301  76  74
1720427727,687:   -298  76  74
1720427727,687:   -296  76  74
1720427727,687:   -293  76  74
1720427727,687:   -286  76  74
1720427727,718:   -274  76  74
1720427727,718:   -260  76  74
1720427727,718:   -247  76  74
1720427727,718:   -241  76  74
1720427727,718:   -241  76  74
1720427727,718:   -241  76  74
1720427727,718:   -232  76  74
1720427727,718:   -214  76  74
1720427727,718:   -195  76  74
1720427727,718:   -184  76  74
1720427727,718:   -183  76  74
1720427727,718:   -187  76  74
1720427727,718:   -184  76  74
1720427727,718:   -172  76  74
1720427727,718:   -158  76  74
1720427727,718:   -149  76  74
1720427727,718:   -151  76  74
1720427727,718:   -157  76  74
1720427727,718:   -157  76  74
1720427727,718:   -145  76  74
1720427727,718:   -130  76  74
1720427727,718:   -126  76  74
1720427727,718:   -135  76  74
1720427727,750:   -145  76  74
1720427727,750:   -143  76  74
1720427727,750:   -130  76  74
1720427727,750:   -121  76  74
1720427727,750:   -123  76  74
1720427727,750:   -128  76  74
1720427727,750:   -122  76  74
1720427727,750:   -104  76  74
1720427727,750:    -89  76  74
1720427727,750:    -87  76  74
1720427727,750:    -94  76  74
1720427727,750:    -97  76  74
1720427727,750:    -93  76  74
1720427727,750:    -88  76  74
1720427727,750:    -89  76  74
1720427727,782:    -91  76  74
1720427727,782:    -85  76  74
1720427727,782:    -73  76  74
1720427727,782:    -67  76  74
1720427727,782:    -70  76  74
1720427727,782:    -74  76  74
1720427727,782:    -70  76  74
1720427727,782:    -61  76  74
1720427727,782:    -55  76  74
1720427727,782:    -58  76  74
1720427727,782:    -64  76  74
1720427727,782:    -63  76  74
1720427727,782:    -55  76  74
1720427727,782:    -50  76  74
1720427727,782:    -54  76  74
1720427727,814:    -60  76  74
1720427727,814:    -64  76  74
1720427727,814:    -64  76  74
1720427727,814:    -64  76  74
1720427727,814:    -66  76  74
1720427727,814:    -67  76  74
1720427727,814:    -65  76  74
1720427727,814:    -62  76  74
1720427727,814:    -59  76  74
1720427727,814:    -56  76  74
1720427727,814:    -52  76  74
1720427727,814:    -49  76  74
1720427727,814:    -53  76  74
1720427727,814:    -63  76  74
1720427727,814:    -72  76  74
1720427727,846:    -75  76  74
1720427727,846:    -72  76  74
1720427727,846:    -66  76  74
1720427727,846:    -65  76  74
1720427727,846:    -71  76  74
1720427727,846:    -80  76  74
1720427727,846:    -88  76  74
1720427727,846:    -92  76  74
1720427727,846:    -93  76  74
1720427727,846:    -94  76  74
1720427727,846:    -99  76  74
1720427727,846:   -105  76  74
1720427727,846:   -107  76  74
1720427727,846:   -103  76  74
1720427727,846:    -97  76  74
1720427727,846:    -94  76  74
1720427727,846:    -92  76  74
1720427727,846:    -90  76  74
1720427727,846:    -86  76  74
1720427727,846:    -82  76  74
1720427727,846:    -77  76  74
1720427727,846:    -72  76  74
1720427727,878:    -63  76  74
1720427727,878:    -53  76  74
1720427727,878:    -50  76  74
1720427727,878:    -53  76  74
1720427727,878:    -54  76  74
1720427727,878:    -50  76  74
1720427727,878:    -42  76  74
1720427727,878:    -40  76  74
1720427727,878:    -46  76  74
1720427727,878:    -51  76  74
1720427727,878:    -46  76  74
1720427727,878:    -30  76  74
1720427727,878:    -17  76  74
1720427727,878:    -15  76  74
1720427727,878:    -22  76  74
1720427727,910:    -27  76  74
1720427727,910:    -23  76  74
1720427727,910:    -15  76  74
1720427727,910:    -10  76  74
1720427727,910:    -10  76  74
1720427727,910:     -9  76  74
1720427727,910:     -3  76  74
1720427727,910:      7  76  74
1720427727,910:     11  76  74
1720427727,910:      9  76  74
1720427727,910:      7  76  74
1720427727,910:      8  76  74
1720427727,910:     14  76  74
1720427727,910:     16  76  74
1720427727,910:     13  76  74
1720427727,942:     11  76  74
1720427727,942:     16  76  74
1720427727,942:     21  76  74
1720427727,942:     17  76  74
1720427727,942:      3  76  74
1720427727,942:    -11  76  74
1720427727,942:    -13  76  74
1720427727,942:     -7  76  74
1720427727,942:     -6  76  74
1720427727,942:    -16  76  74
1720427727,942:    -28  76  74
1720427727,942:    -26  76  74
1720427727,942:     -9  76  74
1720427727,942:      7  76  74
1720427727,942:     11  76  74
1720427727,974:      3  76  74
1720427727,974:     -2  76  74
1720427727,974:      4  76  74
1720427727,974:     16  76  74
1720427727,974:     25  76  74
1720427727,974:     28  76  74
1720427727,974:     32  76  74
1720427727,974:     41  76  74
1720427727,974:     51  76  74
1720427727,974:     57  76  74
1720427727,974:     61  76  74
1720427727,974:     69  76  74
1720427727,974:     85  76  74
1720427727,974:    103  76  74
1720427727,974:    112  76  74
1720427727,974:    112  76  74
1720427727,974:    116  76  74
1720427727,974:    130  76  74
1720427727,974:    147  76  74
1720427727,974:    148  76  74
1720427727,974:    128  76  74
1720427727,974:    104  76  74
1720427727,974:     98  76  74
1720427728,005:    116  76  74
1720427728,005:    140  76  74
1720427728,005:    154  76  74
1720427728,005:    160  76  74
1720427728,005:    175  76  74
1720427728,005:    203  76  74
1720427728,005:    231  76  74
1720427728,037:    239  76  74
1720427728,037:    223  76  74
1720427728,037:    199  76  74
1720427728,037:    181  76  74
1720427728,037:    166  76  74
1720427728,037:    140  76  74
1720427728,037:    104  76  74
1720427728,037:     70  76  74
1720427728,037:     51  76  74
1720427728,037:     44  76  74
1720427728,037:     40  76  74
1720427728,037:     31  76  74
1720427728,037:     20  76  74
1720427728,037:     14  76  74
1720427728,037:     12  76  74
1720427728,068:      7  76  74
1720427728,068:     -2  76  74
1720427728,068:    -10  76  74
1720427728,068:    -14  76  74
1720427728,068:    -17  76  74
1720427728,068:    -24  76  74
1720427728,068:    -38  76  74
1720427728,068:    -49  76  74
1720427728,068:    -48  76  74
1720427728,068:    -34  76  74
1720427728,068:    -19  76  74
1720427728,068:    -16  76  74
1720427728,068:    -23  76  74
1720427728,068:    -32  76  74
1720427728,068:    -34  76  74
1720427728,068:    -30  76  74
1720427728,068:    -30  76  74
1720427728,068:    -39  76  74
1720427728,068:    -52  76  74
1720427728,068:    -62  76  74
1720427728,068:    -67  76  74
1720427728,068:    -69  76  74
1720427728,068:    -73  76  74
1720427728,100:    -80  76  74
1720427728,100:    -86  76  74
1720427728,100:    -84  76  74
1720427728,100:    -66  76  74
1720427728,100:    -41  76  74
1720427728,100:    -23  76  74
1720427728,100:    -15  76  74
1720427728,100:      0  76  74
1720427728,100:     31  76  74
1720427728,100:     55  76  74
1720427728,100:     26  76  74
1720427728,100:    -71  76  74
1720427728,100:   -199  76  74
1720427728,100:   -308  76  74
1720427728,100:   -401  76  74
1720427728,132:   -525  76  74
1720427728,132:   -687  76  74
1720427728,132:   -810  76  74
1720427728,132:   -782  76  74
1720427728,132:   -571  76  74
1720427728,132:   -218  76  74
1720427728,132:    276  76  74
1720427728,132:    992  76  74
1720427728,132:   2007  76  74
1720427728,132:   3280  76  74
1720427728,132:   4690  76  74
1720427728,132:   6154  76  74
1720427728,132:   7650  76  74
1720427728,132:   9118  76  74
1720427728,132:  10405  76  74
1720427728,163:  11365  78  74
1720427728,163:  11958  78  74
1720427728,163:  12167  78  74
1720427728,163:  11838  78  74
1720427728,163:  10736  78  74
1720427728,163:   8851  78  74
1720427728,163:   6585  78  74
1720427728,163:   4489  78  74
1720427728,163:   2812  78  74
1720427728,163:   1369  78  74
1720427728,163:   -101  78  74
1720427728,163:  -1512  78  74
1720427728,163:  -2473  78  74
1720427728,163:  -2714  78  74
1720427728,163:  -2387  78  74
1720427728,163:  -1919  78  74
1720427728,163:  -1629  78  74
1720427728,163:  -1557  78  74
1720427728,163:  -1592  78  74
1720427728,163:  -1667  78  74
1720427728,163:  -1796  78  74
1720427728,163:  -1985  78  74
1720427728,194:  -2198  78  74
1720427728,194:  -2389  78  74
1720427728,194:  -2542  78  74
1720427728,194:  -2666  78  74
1720427728,194:  -2729  78  74
1720427728,194:  -2694  78  74
1720427728,194:  -2566  78  74
1720427728,194:  -2392  78  74
1720427728,194:  -2240  78  74
1720427728,194:  -2165  78  74
1720427728,194:  -2183  78  74
1720427728,194:  -2264  78  74
1720427728,194:  -2352  78  74
1720427728,194:  -2396  78  74
1720427728,194:  -2369  78  74
1720427728,225:  -2274  78  74
1720427728,225:  -2142  78  74
1720427728,225:  -2010  78  74
1720427728,225:  -1910  78  74
1720427728,225:  -1857  78  74
1720427728,225:  -1850  78  74
1720427728,225:  -1865  78  74
1720427728,225:  -1874  78  74
1720427728,257:  -1853  78  74
1720427728,257:  -1799  78  74
1720427728,257:  -1723  78  74
1720427728,257:  -1646  78  74
1720427728,257:  -1582  78  74
1720427728,257:  -1534  78  74
1720427728,257:  -1497  78  74
1720427728,257:  -1470  78  74
1720427728,257:  -1451  78  74
1720427728,257:  -1435  78  74
1720427728,257:  -1413  78  74
1720427728,257:  -1380  78  74
1720427728,257:  -1334  78  74
1720427728,257:  -1288  78  74
1720427728,257:  -1252  78  74
1720427728,288:  -1226  78  74
1720427728,288:  -1202  78  74
1720427728,288:  -1176  78  74
1720427728,288:  -1150  78  74
1720427728,288:  -1128  78  74
1720427728,288:  -1110  78  74
1720427728,288:  -1090  78  74
1720427728,288:  -1064  78  74
1720427728,288:  -1035  78  74
1720427728,288:  -1009  78  74
1720427728,288:   -988  78  74
1720427728,288:   -967  78  74
1720427728,288:   -943  78  74
1720427728,288:   -920  78  74
1720427728,288:   -902  78  74
1720427728,288:   -887  78  74
1720427728,288:   -871  78  74
1720427728,288:   -850  78  74
1720427728,288:   -825  78  74
1720427728,288:   -805  78  74
1720427728,288:   -790  78  74
1720427728,288:   -774  78  74
1720427728,320:   -750  78  74
1720427728,320:   -725  78  74
1720427728,320:   -705  78  74
1720427728,320:   -694  78  74
1720427728,320:   -686  78  74
1720427728,320:   -669  78  74
1720427728,320:   -641  78  74
1720427728,320:   -609  78  74
1720427728,320:   -580  78  74
1720427728,320:   -553  78  74
1720427728,320:   -524  78  74
1720427728,320:   -492  78  74
1720427728,320:   -460  78  74
1720427728,320:   -430  78  74
1720427728,320:   -401  78  74
1720427728,350:   -369  78  74
1720427728,350:   -338  78  74
1720427728,350:   -310  78  74
1720427728,350:   -285  78  74
1720427728,350:   -260  78  74
1720427728,350:   -231  78  74
1720427728,350:   -199  78  74
1720427728,350:   -170  78  74
1720427728,350:   -148  78  74
1720427728,350:   -132  78  74
1720427728,350:   -117  78  74
1720427728,350:    -98  78  74
1720427728,350:    -77  78  74
1720427728,350:    -57  78  74
1720427728,350:    -39  78  74
1720427728,382:    -25  78  74
1720427728,382:    -10  78  74
1720427728,382:      5  78  74
1720427728,382:     20  78  74
1720427728,382:     30  78  74
1720427728,382:     34  78  74
1720427728,382:     35  78  74
1720427728,382:     37  78  74
1720427728,382:     37  78  74
1720427728,382:     32  78  74
1720427728,382:     18  78  74
1720427728,382:     -2  78  74
1720427728,382:    -21  78  74
1720427728,382:    -35  78  74
1720427728,382:    -47  78  74
1720427728,382:    -67  78  74
1720427728,382:    -96  78  74
1720427728,382:   -129  78  74
1720427728,382:   -158  78  74
1720427728,382:   -181  78  74
1720427728,412:   -199  78  74
1720427728,412:   -218  78  74
1720427728,412:   -237  78  74
1720427728,412:   -254  78  74
1720427728,412:   -269  78  74
1720427728,412:   -282  78  74
1720427728,412:   -292  78  74
1720427728,412:   -298  78  74
1720427728,444:   -299  78  74
1720427728,444:   -298  78  74
1720427728,444:   -294  78  74
1720427728,444:   -290  78  74
1720427728,444:   -287  78  74
1720427728,444:   -288  78  74
1720427728,444:   -290  78  74
1720427728,444:   -292  78  74
1720427728,444:   -289  78  74
1720427728,444:   -280  78  74
1720427728,444:   -270  78  74
1720427728,444:   -263  78  74
1720427728,444:   -258  78  74
1720427728,444:   -249  78  74
1720427728,444:   -237  78  74
1720427728,475:   -227  78  74
1720427728,475:   -224  78  74
1720427728,475:   -231  78  74
1720427728,475:   -238  78  74
1720427728,475:   -236  78  74
1720427728,475:   -225  78  74
1720427728,475:   -215  78  74
1720427728,475:   -209  78  74
1720427728,475:   -204  78  74
1720427728,475:   -192  78  74
1720427728,475:   -174  78  74
1720427728,475:   -160  78  74
1720427728,475:   -155  78  74
1720427728,475:   -156  78  74
1720427728,475:   -150  78  74
1720427728,475:   -136  78  74
1720427728,475:   -121  78  74
1720427728,475:   -112  78  74
1720427728,475:   -106  78  74
1720427728,475:   -100  78  74
1720427728,475:    -91  78  74
1720427728,475:    -84  78  74
1720427728,507:    -83  78  74
1720427728,507:    -87  78  74
1720427728,507:    -90  78  74
1720427728,507:    -91  78  74
1720427728,507:    -88  78  74
1720427728,507:    -81  78  74
1720427728,507:    -72  78  74
1720427728,507:    -68  78  74
1720427728,507:    -71  78  74
1720427728,507:    -75  78  74
1720427728,507:    -70  78  74
1720427728,507:    -55  78  74
1720427728,507:    -39  78  74
1720427728,507:    -34  78  74
1720427728,507:    -39  78  74
1720427728,539:    -41  78  74
1720427728,539:    -27  78  74
1720427728,539:     -4  78  74
1720427728,539:     13  78  74
1720427728,539:     18  78  74
1720427728,539:     16  78  74
1720427728,539:     18  78  74
1720427728,539:     28  78  74
1720427728,539:     39  78  74
1720427728,539:     41  78  74
1720427728,539:     36  78  74
1720427728,539:     35  78  74
1720427728,539:     42  78  74
1720427728,539:     52  78  74
1720427728,539:     57  78  74
1720427728,570:     56  78  74
1720427728,570:     56  78  74
1720427728,570:     63  78  74
1720427728,570:     73  78  74
1720427728,570:     79  78  74
1720427728,570:     79  78  74
1720427728,570:     80  78  74
1720427728,570:     83  78  74
1720427728,570:     84  78  74
1720427728,570:     80  78  74
1720427728,570:     75  78  74
1720427728,570:     78  78  74
1720427728,570:     86  78  74
1720427728,570:     86  78  74
1720427728,570:     74  78  74
1720427728,602:     59  78  74
1720427728,602:     59  78  74
1720427728,602:     74  78  74
1720427728,602:     86  78  74
1720427728,602:     79  78  74
1720427728,602:     60  78  74
1720427728,602:     47  78  74
1720427728,602:     50  78  74
1720427728,634:     58  78  74
1720427728,634:     57  78  74
1720427728,634:     50  78  74
1720427728,634:     50  78  74
1720427728,634:     63  78  74
1720427728,634:     73  78  74
1720427728,634:     66  78  74
1720427728,634:     48  78  74
1720427728,634:     40  78  74
1720427728,634:     53  78  74
1720427728,634:     68  78  74
1720427728,634:     65  78  74
1720427728,634:     47  78  74
1720427728,634:     37  78  74
1720427728,634:     48  78  74
1720427728,634:     68  78  74
1720427728,634:     71  78  74
1720427728,634:     56  78  74
1720427728,634:     43  78  74
1720427728,634:     45  78  74
1720427728,634:     58  78  74
1720427728,634:     63  78  74
1720427728,666:     52  78  74
1720427728,666:     39  78  74
1720427728,666:     41  78  74
1720427728,666:     55  78  74
1720427728,666:     66  78  74
1720427728,666:     62  78  74
1720427728,666:     46  78  74
1720427728,666:     34  78  74
1720427728,666:     37  78  74
1720427728,666:     50  78  74
1720427728,666:     59  78  74
1720427728,666:     58  78  74
1720427728,666:     55  78  74
1720427728,666:     59  78  74
1720427728,666:     69  78  74
1720427728,698:     76  78  74
1720427728,698:     73  78  74
1720427728,698:     65  78  74
1720427728,698:     62  78  74
1720427728,698:     66  78  74
1720427728,698:     66  78  74
1720427728,698:     59  78  74
1720427728,698:     55  78  74
1720427728,698:     62  78  74
1720427728,698:     77  78  74
1720427728,698:     84  78  74
1720427728,698:     79  78  74
1720427728,698:     72  78  74
1720427728,698:     75  78  74
1720427728,698:     85  78  74
1720427728,698:     86  78  74
1720427728,698:     78  78  74
1720427728,698:     72  78  74
1720427728,698:     79  78  74
1720427728,698:     89  78  74
1720427728,698:     90  78  74
1720427728,698:     82  78  74
1720427728,698:     80  78  74
1720427728,730:     90  78  74
1720427728,730:    103  78  74
1720427728,730:    103  78  74
1720427728,730:     92  78  74
1720427728,730:     87  78  74
1720427728,730:     96  78  74
1720427728,730:    105  78  74
1720427728,730:    100  78  74
1720427728,730:     87  78  74
1720427728,730:     80  78  74
1720427728,730:     84  78  74
1720427728,730:     89  78  74
1720427728,730:     83  78  74
1720427728,730:     72  78  74
1720427728,730:     74  78  74
1720427728,762:     91  78  74
1720427728,762:    106  78  74
1720427728,762:    103  78  74
1720427728,762:     85  78  74
1720427728,762:     69  78  74
1720427728,762:     68  78  74
1720427728,762:     78  78  74
1720427728,762:     86  78  74
1720427728,762:     85  78  74
1720427728,762:     80  78  74
1720427728,762:     81  78  74
1720427728,762:     90  78  74
1720427728,762:    102  78  74
1720427728,762:    111  78  74
1720427728,762:    116  78  74
1720427728,794:    118  78  74
1720427728,794:    119  78  74
1720427728,794:    113  78  74
1720427728,794:    102  78  74
1720427728,794:     93  78  74
1720427728,794:     94  78  74
1720427728,794:    103  78  74
1720427728,794:    110  78  74
1720427728,794:    102  78  74
1720427728,794:     87  78  74
1720427728,794:     80  78  74
1720427728,794:     89  78  74
1720427728,794:    105  78  74
1720427728,794:    113  78  74
1720427728,794:    109  78  74
1720427728,826:    101  78  74
1720427728,826:    100  78  74
1720427728,826:    107  78  74
1720427728,826:    111  78  74
1720427728,826:    108  78  74
1720427728,826:    102  78  74
1720427728,826:    102  78  74
1720427728,826:    112  78  74
1720427728,826:    128  78  74
1720427728,826:    143  78  74
1720427728,826:    156  78  74
1720427728,826:    165  78  74
1720427728,826:    165  78  74
1720427728,826:    156  78  74
1720427728,826:    141  78  74
1720427728,826:    133  78  74
1720427728,826:    136  78  74
1720427728,826:    148  78  74
1720427728,826:    160  78  74
1720427728,826:    169  78  74
1720427728,826:    184  78  74
1720427728,826:    209  78  74
1720427728,858:    240  78  74
1720427728,858:    261  78  74
1720427728,858:    265  78  74
1720427728,858:    252  78  74
1720427728,858:    232  78  74
1720427728,858:    212  78  74
1720427728,858:    192  78  74
1720427728,858:    167  78  74
1720427728,858:    139  78  74
1720427728,858:    112  78  74
1720427728,858:     92  78  74
1720427728,858:     82  78  74
1720427728,858:     79  78  74
1720427728,858:     77  78  74
1720427728,858:     70  78  74
1720427728,890:     60  78  74
1720427728,890:     50  78  74
1720427728,890:     44  78  74
1720427728,890:     43  78  74
1720427728,890:     42  78  74
1720427728,890:     38  78  74
1720427728,890:     28  78  74
1720427728,890:     17  78  74
1720427728,890:     11  78  74
1720427728,890:     12  78  74
1720427728,890:     19  78  74
1720427728,890:     25  78  74
1720427728,890:     24  78  74
1720427728,890:     15  78  74
1720427728,890:     10  78  74
1720427728,922:     12  78  74
1720427728,922:     20  78  74
1720427728,922:     26  78  74
1720427728,922:     25  78  74
1720427728,922:     18  78  74
1720427728,922:     11  78  74
1720427728,922:     10  78  74
1720427728,922:     11  78  74
1720427728,922:     10  78  74
1720427728,922:      5  78  74
1720427728,922:     -3  78  74
1720427728,922:     -6  78  74
1720427728,922:      1  78  74
1720427728,922:     18  78  74
1720427728,922:     34  78  74
1720427728,954:     43  78  74
1720427728,954:     56  78  74
1720427728,954:     87  78  74
1720427728,954:    122  78  74
1720427728,954:    120  78  74
1720427728,954:     52  78  74
1720427728,954:    -61  78  74
1720427728,954:   -167  78  74
1720427728,954:   -251  78  74
1720427728,954:   -353  78  74
1720427728,954:   -506  78  74
1720427728,954:   -665  78  74
1720427728,954:   -711  78  74
1720427728,954:   -571  78  74
1720427728,954:   -269  78  74
1720427728,986:    162  78  74
1720427728,986:    767  78  74
1720427728,986:   1643  78  74
1720427728,986:   2807  78  74
1720427728,986:   4156  78  74
1720427728,986:   5580  78  74
1720427728,986:   7048  78  74
1720427728,986:   8544  78  74
1720427728,986:   9960  78  74
1720427728,986:  11122  78  74
1720427728,986:  11930  78  74
1720427728,986:  12374  78  74
1720427728,986:  12378  78  74
1720427728,986:  11717  78  74
1720427728,986:  10230  78  74
1720427729,017:   8110  72  74
1720427729,017:   5880  72  74
1720427729,017:   3973  72  74
1720427729,017:   2397  72  74
1720427729,017:    887  72  74
1720427729,017:   -646  72  74
1720427729,017:  -1914  72  74
1720427729,017:  -2542  72  74
1720427729,017:  -2483  72  74
1720427729,017:  -2068  72  74
1720427729,017:  -1688  72  74
1720427729,017:  -1507  72  74
1720427729,017:  -1473  72  74
1720427729,017:  -1506  72  74
1720427729,017:  -1600  72  74
1720427729,017:  -1766  72  74
1720427729,017:  -1977  72  74
1720427729,017:  -2184  72  74
1720427729,017:  -2365  72  74
1720427729,017:  -2517  72  74
1720427729,017:  -2621  72  74
1720427729,017:  -2632  72  74
1720427729,017:  -2538  72  74
1720427729,049:  -2378  72  74
1720427729,049:  -2211  72  74
1720427729,049:  -2092  72  74
1720427729,049:  -2055  72  74
1720427729,049:  -2104  72  74
1720427729,049:  -2206  72  74
1720427729,049:  -2298  72  74
1720427729,049:  -2322  72  74
1720427729,049:  -2252  72  74
1720427729,049:  -2115  72  74
1720427729,049:  -1964  72  74
1720427729,049:  -1845  72  74
1720427729,049:  -1773  72  74
1720427729,049:  -1743  72  74
1720427729,049:  -1741  72  74
1720427729,081:  -1752  72  74
1720427729,081:  -1758  72  74
1720427729,081:  -1736  72  74
1720427729,081:  -1678  72  74
1720427729,081:  -1596  72  74
1720427729,081:  -1520  72  74
1720427729,081:  -1469  72  74
1720427729,081:  -1441  72  74
1720427729,081:  -1424  72  74
1720427729,081:  -1407  72  74
1720427729,081:  -1390  72  74
1720427729,081:  -1372  72  74
1720427729,081:  -1348  72  74
1720427729,081:  -1310  72  74
1720427729,081:  -1259  72  74
1720427729,113:  -1207  72  74
1720427729,113:  -1169  72  74
1720427729,113:  -1143  72  74
1720427729,113:  -1120  72  74
1720427729,113:  -1089  72  74
1720427729,113:  -1050  72  74
1720427729,113:  -1014  72  74
1720427729,113:   -989  72  74
1720427729,113:   -975  72  74
1720427729,113:   -960  72  74
1720427729,113:   -935  72  74
1720427729,113:   -904  72  74
1720427729,113:   -874  72  74
1720427729,113:   -850  72  74
1720427729,113:   -832  72  74
1720427729,145:   -812  72  74
1720427729,145:   -787  72  74
1720427729,145:   -760  72  74
1720427729,145:   -738  72  74
1720427729,145:   -722  72  74
1720427729,145:   -705  72  74
1720427729,145:   -685  72  74
1720427729,145:   -662  72  74
1720427729,145:   -644  72  74
1720427729,145:   -634  72  74
1720427729,145:   -628  72  74
1720427729,145:   -619  72  74
1720427729,145:   -604  72  74
1720427729,145:   -586  72  74
1720427729,145:   -567  72  74
1720427729,177:   -546  72  74
1720427729,177:   -520  72  74
1720427729,177:   -487  72  74
1720427729,177:   -449  72  74
1720427729,177:   -410  72  74
1720427729,177:   -372  72  74
1720427729,177:   -334  72  74
1720427729,177:   -296  72  74
1720427729,177:   -259  72  74
1720427729,177:   -227  72  74
1720427729,177:   -202  72  74
1720427729,177:   -181  72  74
1720427729,177:   -158  72  74
1720427729,177:   -130  72  74
1720427729,177:   -101  72  74
1720427729,209:    -76  72  74
1720427729,209:    -56  72  74
1720427729,209:    -35  72  74
1720427729,209:     -9  72  74
1720427729,209:     21  72  74
1720427729,209:     51  72  74
1720427729,209:     80  72  74
1720427729,209:    108  72  74
1720427729,209:    135  72  74
1720427729,209:    156  72  74
1720427729,209:    167  72  74
1720427729,209:    173  72  74
1720427729,209:    184  72  74
1720427729,209:    198  72  74
1720427729,209:    208  72  74
1720427729,241:    206  72  74
1720427729,241:    200  72  74
1720427729,241:    200  72  74
1720427729,241:    208  72  74
1720427729,241:    212  72  74
1720427729,241:    200  72  74
1720427729,241:    173  72  74
1720427729,241:    144  72  74
1720427729,241:    117  72  74
1720427729,241:     91  72  74
1720427729,241:     58  72  74
1720427729,241:     22  72  74
1720427729,241:    -11  72  74
1720427729,241:    -37  72  74
1720427729,241:    -55  72  74
1720427729,241:    -67  72  74
1720427729,241:    -74  72  74
1720427729,241:    -77  72  74
1720427729,241:    -79  72  74
1720427729,241:    -82  72  74
1720427729,241:    -83  72  74
1720427729,241:    -81  72  74
1720427729,272:    -75  72  74
1720427729,272:    -69  72  74
1720427729,272:    -68  72  74
1720427729,272:    -72  72  74
1720427729,272:    -79  72  74
1720427729,272:    -83  72  74
1720427729,272:    -81  72  74
1720427729,272:    -79  72  74
1720427729,272:    -81  72  74
1720427729,272:    -89  72  74
1720427729,272:    -95  72  74
1720427729,272:    -93  72  74
1720427729,272:    -85  72  74
1720427729,272:    -75  72  74
1720427729,272:    -68  72  74
1720427729,304:    -60  72  74
1720427729,304:    -51  72  74
1720427729,304:    -43  72  74
1720427729,304:    -40  72  74
1720427729,304:    -40  72  74
1720427729,304:    -37  72  74
1720427729,304:    -30  72  74
1720427729,304:    -26  72  74
1720427729,304:    -32  72  74
1720427729,304:    -45  72  74
1720427729,304:    -56  72  74
1720427729,304:    -58  72  74
1720427729,304:    -56  72  74
1720427729,304:    -55  72  74
1720427729,304:    -59  72  74
1720427729,336:    -60  72  74
1720427729,336:    -55  72  74
1720427729,336:    -43  72  74
