timestamp: ADC HeartRate4sAverage HeartRate30sAverage
1720045241,009:  -1549  84  86
1720045241,009:  -1578  84  86
1720045241,009:  -1578  84  86
1720045241,009:  -1548  84  86
1720045241,009:  -1508  84  86
1720045241,009:  -1465  84  86
1720045241,009:  -1399  84  86
1720045241,009:  -1302  84  86
1720045241,009:  -1200  84  86
1720045241,009:  -1138  84  86
1720045241,009:  -1131  84  86
1720045241,009:  -1148  84  86
1720045241,009:  -1143  84  86
1720045241,009:  -1104  84  86
1720045241,009:  -1053  84  86
1720045241,039:  -1010  84  86
1720045241,039:   -966  84  86
1720045241,039:   -907  84  86
1720045241,039:   -842  84  86
1720045241,039:   -800  84  86
1720045241,039:   -794  84  86
1720045241,039:   -800  84  86
1720045241,039:   -783  84  86
1720045241,039:   -742  84  86
1720045241,039:   -707  84  86
1720045241,039:   -697  84  86
1720045241,039:   -694  84  86
1720045241,039:   -670  84  86
1720045241,039:   -626  84  86
1720045241,039:   -593  84  86
1720045241,069:   -588  84  86
1720045241,069:   -590  84  86
1720045241,069:   -566  84  86
1720045241,069:   -518  84  86
1720045241,069:   -481  84  86
1720045241,069:   -480  84  86
1720045241,069:   -493  84  86
1720045241,069:   -486  84  86
1720045241,069:   -453  84  86
1720045241,069:   -423  84  86
1720045241,069:   -421  84  86
1720045241,069:   -429  84  86
1720045241,069:   -419  84  86
1720045241,069:   -384  84  86
1720045241,069:   -356  84  86
1720045241,099:   -356  84  86
1720045241,099:   -370  84  86
1720045241,099:   -364  84  86
1720045241,099:   -331  84  86
1720045241,099:   -300  84  86
1720045241,099:   -300  84  86
1720045241,099:   -321  84  86
1720045241,099:   -327  84  86
1720045241,099:   -304  84  86
1720045241,099:   -277  84  86
1720045241,099:   -279  84  86
1720045241,099:   -308  84  86
1720045241,099:   -324  84  86
1720045241,099:   -303  84  86
1720045241,099:   -262  84  86
1720045241,131:   -238  84  86
1720045241,131:   -240  84  86
1720045241,131:   -241  84  86
1720045241,131:   -216  84  86
1720045241,131:   -179  84  86
1720045241,131:   -167  84  86
1720045241,131:   -192  84  86
1720045241,131:   -225  84  86
1720045241,131:   -231  84  86
1720045241,131:   -212  84  86
1720045241,131:   -200  84  86
1720045241,131:   -212  84  86
1720045241,131:   -231  84  86
1720045241,131:   -227  84  86
1720045241,131:   -202  84  86
1720045241,163:   -186  84  86
1720045241,163:   -198  84  86
1720045241,163:   -219  84  86
1720045241,163:   -218  84  86
1720045241,163:   -191  84  86
1720045241,163:   -167  84  86
1720045241,163:   -166  84  86
1720045241,163:   -173  84  86
1720045241,163:   -159  84  86
1720045241,163:   -121  84  86
1720045241,163:    -86  84  86
1720045241,163:    -78  84  86
1720045241,163:    -83  84  86
1720045241,163:    -71  84  86
1720045241,163:    -36  84  86
1720045241,195:     -4  84  86
1720045241,195:      4  84  86
1720045241,195:      4  84  86
1720045241,195:     23  84  86
1720045241,195:     62  84  86
1720045241,195:     89  84  86
1720045241,195:     85  84  86
1720045241,195:     72  84  86
1720045241,195:     87  84  86
1720045241,195:    132  84  86
1720045241,195:    170  84  86
1720045241,195:    171  84  86
1720045241,195:    155  84  86
1720045241,195:    167  84  86
1720045241,195:    219  84  86
1720045241,195:    267  84  86
1720045241,195:    266  84  86
1720045241,195:    222  84  86
1720045241,195:    189  84  86
1720045241,195:    203  84  86
1720045241,195:    247  84  86
1720045241,195:    270  84  86
1720045241,195:    253  84  86
1720045241,227:    229  84  86
1720045241,227:    236  84  86
1720045241,227:    270  84  86
1720045241,227:    292  84  86
1720045241,227:    278  84  86
1720045241,227:    250  84  86
1720045241,227:    245  84  86
1720045241,227:    270  84  86
1720045241,227:    293  84  86
1720045241,227:    291  84  86
1720045241,227:    274  84  86
1720045241,227:    275  84  86
1720045241,227:    297  84  86
1720045241,227:    315  84  86
1720045241,227:    302  84  86
1720045241,257:    271  84  86
1720045241,257:    257  84  86
1720045241,257:    268  84  86
1720045241,257:    283  84  86
1720045241,257:    280  84  86
1720045241,257:    269  84  86
1720045241,257:    274  84  86
1720045241,257:    297  84  86
1720045241,257:    310  84  86
1720045241,257:    295  84  86
1720045241,257:    270  84  86
1720045241,257:    267  84  86
1720045241,257:    289  84  86
1720045241,257:    303  84  86
1720045241,257:    288  84  86
1720045241,287:    262  84  86
1720045241,287:    259  84  86
1720045241,287:    282  84  86
1720045241,287:    298  84  86
1720045241,287:    283  84  86
1720045241,287:    253  84  86
1720045241,287:    244  84  86
1720045241,287:    266  84  86
1720045241,287:    293  84  86
1720045241,287:    301  84  86
1720045241,287:    295  84  86
1720045241,287:    299  84  86
1720045241,287:    316  84  86
1720045241,287:    322  84  86
1720045241,287:    301  84  86
1720045241,318:    269  84  86
1720045241,318:    254  84  86
1720045241,318:    263  84  86
1720045241,318:    275  84  86
1720045241,318:    268  84  86
1720045241,318:    248  84  86
1720045241,318:    242  84  86
1720045241,318:    261  84  86
1720045241,318:    282  84  86
1720045241,318:    277  84  86
1720045241,318:    248  84  86
1720045241,318:    225  84  86
1720045241,318:    232  84  86
1720045241,318:    253  84  86
1720045241,318:    259  84  86
1720045241,348:    240  84  86
1720045241,348:    223  84  86
1720045241,348:    236  84  86
1720045241,348:    268  84  86
1720045241,348:    285  84  86
1720045241,348:    271  84  86
1720045241,348:    248  84  86
1720045241,348:    249  84  86
1720045241,348:    269  84  86
1720045241,348:    276  84  86
1720045241,348:    256  84  86
1720045241,348:    229  84  86
1720045241,379:    225  84  86
1720045241,379:    241  84  86
1720045241,379:    240  84  86
1720045241,379:    204  84  86
1720045241,379:    160  84  86
1720045241,379:    150  84  86
1720045241,379:    177  84  86
1720045241,379:    205  84  86
1720045241,379:    204  84  86
1720045241,379:    186  84  86
1720045241,379:    186  84  86
1720045241,379:    210  84  86
1720045241,379:    228  84  86
1720045241,379:    214  84  86
1720045241,379:    184  84  86
1720045241,409:    172  84  86
1720045241,409:    183  84  86
1720045241,409:    190  84  86
1720045241,409:    171  84  86
1720045241,409:    145  84  86
1720045241,409:    144  84  86
1720045241,409:    175  84  86
1720045241,409:    202  84  86
1720045241,409:    196  84  86
1720045241,409:    170  84  86
1720045241,409:    161  84  86
1720045241,409:    182  84  86
1720045241,409:    207  84  86
1720045241,409:    204  84  86
1720045241,409:    178  84  86
1720045241,409:    163  84  86
1720045241,409:    173  84  86
1720045241,409:    187  84  86
1720045241,409:    174  84  86
1720045241,409:    141  84  86
1720045241,409:    121  84  86
1720045241,409:    136  84  86
1720045241,440:    167  84  86
1720045241,440:    181  84  86
1720045241,440:    171  84  86
1720045241,440:    161  84  86
1720045241,440:    171  84  86
1720045241,440:    188  84  86
1720045241,440:    186  84  86
1720045241,440:    160  84  86
1720045241,440:    137  84  86
1720045241,440:    139  84  86
1720045241,440:    154  84  86
1720045241,440:    159  84  86
1720045241,440:    144  84  86
1720045241,440:    130  84  86
1720045241,440:    137  84  86
1720045241,470:    156  84  86
1720045241,470:    159  84  86
1720045241,470:    140  84  86
1720045241,470:    118  84  86
1720045241,470:    117  84  86
1720045241,470:    131  84  86
1720045241,470:    140  84  86
1720045241,470:    139  84  86
1720045241,500:    144  84  86
1720045241,500:    167  84  86
1720045241,500:    194  84  86
1720045241,500:    198  84  86
1720045241,500:    176  84  86
1720045241,500:    154  84  86
1720045241,500:    155  84  86
1720045241,500:    168  84  86
1720045241,500:    170  84  86
1720045241,500:    153  84  86
1720045241,500:    143  84  86
1720045241,500:    160  84  86
1720045241,500:    189  84  86
1720045241,500:    203  84  86
1720045241,500:    192  84  86
1720045241,500:    178  84  86
1720045241,500:    185  84  86
1720045241,500:    206  84  86
1720045241,500:    213  84  86
1720045241,500:    194  84  86
1720045241,500:    173  84  86
1720045241,500:    174  84  86
1720045241,532:    198  84  86
1720045241,532:    217  84  86
1720045241,532:    216  84  86
1720045241,532:    212  84  86
1720045241,532:    230  84  86
1720045241,532:    274  84  86
1720045241,532:    316  84  86
1720045241,532:    331  84  86
1720045241,532:    326  84  86
1720045241,532:    326  84  86
1720045241,532:    339  84  86
1720045241,532:    342  84  86
1720045241,532:    315  84  86
1720045241,532:    272  84  86
1720045241,532:    245  84  86
1720045241,564:    246  84  86
1720045241,564:    255  84  86
1720045241,564:    246  84  86
1720045241,564:    225  84  86
1720045241,564:    221  84  86
1720045241,564:    240  84  86
1720045241,564:    251  84  86
1720045241,564:    224  84  86
1720045241,564:    168  84  86
1720045241,564:    127  84  86
1720045241,564:    121  84  86
1720045241,564:    125  84  86
1720045241,564:    103  84  86
1720045241,564:     57  84  86
1720045241,564:     28  84  86
1720045241,596:     39  84  86
1720045241,596:     66  84  86
1720045241,596:     67  84  86
1720045241,596:     37  84  86
1720045241,596:     16  84  86
1720045241,596:     35  84  86
1720045241,596:     77  84  86
1720045241,596:     97  84  86
1720045241,596:     85  84  86
1720045241,596:     74  84  86
1720045241,596:     99  84  86
1720045241,596:    143  84  86
1720045241,596:    162  84  86
1720045241,596:    138  84  86
1720045241,596:    104  84  86
1720045241,628:    104  84  86
1720045241,628:    134  84  86
1720045241,628:    154  84  86
1720045241,628:    139  84  86
1720045241,628:    115  84  86
1720045241,628:    118  84  86
1720045241,628:    147  84  86
1720045241,628:    164  84  86
1720045241,628:    143  84  86
1720045241,628:    109  84  86
1720045241,628:    104  84  86
1720045241,628:    130  84  86
1720045241,628:    155  84  86
1720045241,628:    158  84  86
1720045241,628:    158  84  86
1720045241,660:    187  84  86
1720045241,660:    243  84  86
1720045241,660:    275  84  86
1720045241,660:    239  84  86
1720045241,660:    156  84  86
1720045241,660:     87  84  86
1720045241,660:     55  84  86
1720045241,660:     15  84  86
1720045241,660:    -92  84  86
1720045241,660:   -259  84  86
1720045241,660:   -395  84  86
1720045241,660:   -396  84  86
1720045241,660:   -224  84  86
1720045241,660:    110  84  86
1720045241,660:    643  84  86
1720045241,692:   1486  84  86
1720045241,692:   2702  84  86
1720045241,692:   4157  84  86
1720045241,692:   5560  84  86
1720045241,692:   6698  84  86
1720045241,692:   7612  84  86
1720045241,692:   8456  84  86
1720045241,692:   9181  84  86
1720045241,692:   9419  84  86
1720045241,692:   8791  84  86
1720045241,692:   7330  84  86
1720045241,692:   5532  84  86
1720045241,692:   3956  84  86
1720045241,692:   2777  84  86
1720045241,692:   1769  84  86
1720045241,724:    693  81  85
1720045241,724:   -385  81  85
1720045241,724:  -1162  81  85
1720045241,724:  -1419  81  85
1720045241,724:  -1229  81  85
1720045241,724:   -861  81  85
1720045241,724:   -562  81  85
1720045241,724:   -444  81  85
1720045241,724:   -500  81  85
1720045241,724:   -661  81  85
1720045241,724:   -841  81  85
1720045241,724:   -982  81  85
1720045241,724:  -1089  81  85
1720045241,724:  -1209  81  85
1720045241,724:  -1369  81  85
1720045241,724:  -1531  81  85
1720045241,724:  -1626  81  85
1720045241,724:  -1635  81  85
1720045241,724:  -1608  81  85
1720045241,724:  -1596  81  85
1720045241,724:  -1598  81  85
1720045241,724:  -1586  81  85
1720045241,724:  -1560  81  85
1720045241,756:  -1555  81  85
1720045241,756:  -1590  81  85
1720045241,756:  -1628  81  85
1720045241,756:  -1610  81  85
1720045241,756:  -1518  81  85
1720045241,756:  -1398  81  85
1720045241,756:  -1308  81  85
1720045241,756:  -1264  81  85
1720045241,756:  -1241  81  85
1720045241,756:  -1218  81  85
1720045241,756:  -1202  81  85
1720045241,756:  -1201  81  85
1720045241,756:  -1201  81  85
1720045241,756:  -1170  81  85
1720045241,756:  -1101  81  85
1720045241,786:  -1028  81  85
1720045241,786:   -987  81  85
1720045241,786:   -978  81  85
1720045241,786:   -971  81  85
1720045241,786:   -943  81  85
1720045241,786:   -904  81  85
1720045241,786:   -877  81  85
1720045241,786:   -865  81  85
1720045241,786:   -847  81  85
1720045241,786:   -810  81  85
1720045241,786:   -765  81  85
1720045241,786:   -730  81  85
1720045241,786:   -709  81  85
1720045241,786:   -691  81  85
1720045241,786:   -669  81  85
1720045241,816:   -651  81  85
1720045241,816:   -648  81  85
1720045241,816:   -653  81  85
1720045241,816:   -643  81  85
1720045241,816:   -611  81  85
1720045241,816:   -574  81  85
1720045241,816:   -557  81  85
1720045241,816:   -556  81  85
1720045241,816:   -548  81  85
1720045241,816:   -518  81  85
1720045241,816:   -482  81  85
1720045241,816:   -467  81  85
1720045241,816:   -479  81  85
1720045241,816:   -487  81  85
1720045241,816:   -468  81  85
1720045241,848:   -432  81  85
1720045241,848:   -409  81  85
1720045241,848:   -414  81  85
1720045241,848:   -420  81  85
1720045241,848:   -402  81  85
1720045241,848:   -368  81  85
1720045241,848:   -351  81  85
1720045241,848:   -370  81  85
1720045241,848:   -401  81  85
1720045241,848:   -410  81  85
1720045241,848:   -394  81  85
1720045241,848:   -378  81  85
1720045241,848:   -380  81  85
1720045241,848:   -386  81  85
1720045241,848:   -372  81  85
1720045241,880:   -342  81  85
1720045241,880:   -324  81  85
1720045241,880:   -334  81  85
1720045241,880:   -353  81  85
1720045241,880:   -348  81  85
1720045241,880:   -320  81  85
1720045241,880:   -297  81  85
1720045241,880:   -303  81  85
1720045241,880:   -325  81  85
1720045241,880:   -334  81  85
1720045241,880:   -322  81  85
1720045241,880:   -310  81  85
1720045241,880:   -322  81  85
1720045241,880:   -346  81  85
1720045241,880:   -351  81  85
1720045241,911:   -326  81  85
1720045241,911:   -294  81  85
1720045241,911:   -280  81  85
1720045241,911:   -277  81  85
1720045241,911:   -259  81  85
1720045241,911:   -219  81  85
1720045241,911:   -186  81  85
1720045241,911:   -188  81  85
1720045241,911:   -213  81  85
1720045241,911:   -218  81  85
1720045241,911:   -184  81  85
1720045241,911:   -140  81  85
1720045241,911:   -124  81  85
1720045241,911:   -133  81  85
1720045241,911:   -126  81  85
1720045241,942:    -82  81  85
1720045241,942:    -29  81  85
1720045241,942:    -11  81  85
1720045241,942:    -28  81  85
1720045241,942:    -38  81  85
1720045241,942:     -9  81  85
1720045241,942:     40  81  85
1720045241,942:     67  81  85
1720045241,942:     65  81  85
1720045241,942:     68  81  85
1720045241,942:    101  81  85
1720045241,942:    146  81  85
1720045241,942:    163  81  85
1720045241,942:    147  81  85
1720045241,942:    131  81  85
1720045241,942:    143  81  85
1720045241,942:    170  81  85
1720045241,942:    178  81  85
1720045241,942:    159  81  85
1720045241,942:    143  81  85
1720045241,942:    158  81  85
1720045241,942:    194  81  85
1720045241,972:    214  81  85
1720045241,972:    201  81  85
1720045241,972:    178  81  85
1720045241,972:    180  81  85
1720045241,972:    210  81  85
1720045241,972:    239  81  85
1720045241,972:    243  81  85
1720045241,972:    232  81  85
1720045242,002:    234  81  85
1720045242,002:    258  81  85
1720045242,002:    281  81  85
1720045242,002:    278  81  85
1720045242,002:    260  81  85
1720045242,002:    257  81  85
1720045242,002:    278  81  85
1720045242,002:    302  81  85
1720045242,002:    303  81  85
1720045242,002:    292  81  85
1720045242,002:    297  81  85
1720045242,002:    328  81  85
1720045242,002:    352  81  85
1720045242,002:    337  81  85
1720045242,002:    297  81  85
1720045242,002:    274  81  85
1720045242,002:    290  81  85
1720045242,002:    315  81  85
1720045242,002:    307  81  85
1720045242,002:    270  81  85
1720045242,002:    248  81  85
1720045242,002:    273  81  85
1720045242,033:    314  81  85
1720045242,033:    320  81  85
1720045242,033:    281  81  85
1720045242,033:    244  81  85
1720045242,033:    252  81  85
1720045242,033:    292  81  85
1720045242,033:    312  81  85
1720045242,033:    289  81  85
1720045242,033:    252  81  85
1720045242,033:    244  81  85
1720045242,033:    266  81  85
1720045242,033:    277  81  85
1720045242,033:    252  81  85
1720045242,033:    216  81  85
1720045242,033:    207  81  85
1720045242,065:    227  81  85
1720045242,065:    241  81  85
1720045242,065:    224  81  85
1720045242,065:    199  81  85
1720045242,065:    200  81  85
1720045242,065:    228  81  85
1720045242,065:    249  81  85
1720045242,065:    233  81  85
1720045242,065:    200  81  85
1720045242,065:    188  81  85
1720045242,065:    206  81  85
1720045242,065:    223  81  85
1720045242,065:    217  81  85
1720045242,065:    201  81  85
1720045242,065:    207  81  85
1720045242,095:    234  81  85
1720045242,095:    245  81  85
1720045242,095:    218  81  85
1720045242,095:    176  81  85
1720045242,095:    166  81  85
1720045242,095:    195  81  85
1720045242,095:    226  81  85
1720045242,095:    218  81  85
1720045242,095:    183  81  85
1720045242,095:    162  81  85
1720045242,095:    176  81  85
1720045242,095:    201  81  85
1720045242,095:    199  81  85
1720045242,095:    172  81  85
1720045242,095:    155  81  85
1720045242,127:    169  81  85
1720045242,127:    194  81  85
1720045242,127:    199  81  85
1720045242,127:    183  81  85
1720045242,127:    179  81  85
1720045242,127:    199  81  85
1720045242,127:    224  81  85
1720045242,127:    222  81  85
1720045242,127:    195  81  85
1720045242,127:    178  81  85
1720045242,127:    192  81  85
1720045242,127:    215  81  85
1720045242,127:    216  81  85
1720045242,127:    193  81  85
1720045242,127:    176  81  85
1720045242,158:    185  81  85
1720045242,158:    199  81  85
1720045242,158:    188  81  85
1720045242,158:    155  81  85
1720045242,158:    134  81  85
1720045242,158:    149  81  85
1720045242,158:    179  81  85
1720045242,158:    186  81  85
1720045242,158:    167  81  85
1720045242,158:    154  81  85
1720045242,158:    170  81  85
1720045242,158:    196  81  85
1720045242,158:    196  81  85
1720045242,158:    162  81  85
1720045242,158:    124  81  85
1720045242,190:    116  81  85
1720045242,190:    132  81  85
1720045242,190:    144  81  85
1720045242,190:    138  81  85
1720045242,190:    131  81  85
1720045242,190:    141  81  85
1720045242,190:    163  81  85
1720045242,190:    171  81  85
1720045242,190:    158  81  85
1720045242,190:    142  81  85
1720045242,190:    143  81  85
1720045242,190:    154  81  85
1720045242,190:    154  81  85
1720045242,190:    137  81  85
1720045242,190:    124  81  85
1720045242,222:    137  81  85
1720045242,222:    166  81  85
1720045242,222:    179  81  85
1720045242,222:    162  81  85
1720045242,222:    136  81  85
1720045242,222:    130  81  85
1720045242,222:    144  81  85
1720045242,222:    150  81  85
1720045242,222:    129  81  85
1720045242,222:     98  81  85
1720045242,222:     94  81  85
1720045242,222:    118  81  85
1720045242,222:    140  81  85
1720045242,222:    129  81  85
1720045242,222:    100  81  85
1720045242,222:     91  81  85
1720045242,222:    119  81  85
1720045242,222:    152  81  85
1720045242,222:    155  81  85
1720045242,222:    128  81  85
1720045242,222:    110  81  85
1720045242,222:    124  81  85
1720045242,222:    150  81  85
1720045242,253:    152  81  85
1720045242,253:    129  81  85
1720045242,253:    114  81  85
1720045242,253:    130  81  85
1720045242,253:    160  81  85
1720045242,253:    168  81  85
1720045242,253:    148  81  85
1720045242,253:    132  81  85
1720045242,253:    147  81  85
1720045242,253:    181  81  85
1720045242,253:    197  81  85
1720045242,253:    188  81  85
1720045242,253:    180  81  85
1720045242,253:    206  81  85
1720045242,253:    256  81  85
1720045242,283:    295  81  85
1720045242,283:    306  81  85
1720045242,283:    309  81  85
1720045242,283:    324  81  85
1720045242,283:    339  81  85
1720045242,283:    325  81  85
1720045242,283:    275  81  85
1720045242,314:    224  81  85
1720045242,314:    207  81  85
1720045242,314:    218  81  85
1720045242,314:    222  81  85
1720045242,314:    202  81  85
1720045242,314:    182  81  85
1720045242,314:    189  81  85
1720045242,314:    213  81  85
1720045242,314:    214  81  85
1720045242,314:    173  81  85
1720045242,314:    117  81  85
1720045242,314:     87  81  85
1720045242,314:     84  81  85
1720045242,314:     79  81  85
1720045242,314:     50  81  85
1720045242,314:     16  81  85
1720045242,314:      8  81  85
1720045242,314:     26  81  85
1720045242,314:     42  81  85
1720045242,314:     29  81  85
1720045242,314:      0  81  85
1720045242,314:    -14  81  85
1720045242,314:     -4  81  85
1720045242,345:     10  81  85
1720045242,345:     10  81  85
1720045242,345:      0  81  85
1720045242,345:     -2  81  85
1720045242,345:     11  81  85
1720045242,345:     22  81  85
1720045242,345:     20  81  85
1720045242,345:     10  81  85
1720045242,345:     13  81  85
1720045242,345:     35  81  85
1720045242,345:     59  81  85
1720045242,345:     67  81  85
1720045242,375:     60  81  85
1720045242,375:     58  81  85
1720045242,375:     68  81  85
1720045242,375:     75  81  85
1720045242,375:     65  81  85
1720045242,375:     49  81  85
1720045242,375:     53  81  85
1720045242,375:     84  81  85
1720045242,375:    120  81  85
1720045242,375:    143  81  85
1720045242,375:    157  81  85
1720045242,375:    189  81  85
1720045242,375:    238  81  85
1720045242,375:    265  81  85
1720045242,375:    226  81  85
1720045242,405:    134  81  85
1720045242,405:     52  81  85
1720045242,405:     19  81  85
1720045242,405:      4  81  85
1720045242,405:    -58  81  85
1720045242,405:   -180  81  85
1720045242,405:   -279  81  85
1720045242,405:   -236  81  85
1720045242,405:     -4  81  85
1720045242,405:    397  81  85
1720045242,405:    968  81  85
1720045242,405:   1787  81  85
1720045242,405:   2899  81  85
1720045242,405:   4182  81  85
1720045242,405:   5368  81  85
1720045242,435:   6269  82  84
1720045242,435:   6941  82  84
1720045242,435:   7544  82  84
1720045242,435:   8032  82  84
1720045242,435:   8065  82  84
1720045242,435:   7316  82  84
1720045242,435:   5861  82  84
1720045242,435:   4198  82  84
1720045242,435:   2824  82  84
1720045242,435:   1840  82  84
1720045242,435:    993  82  84
1720045242,435:     71  82  84
1720045242,435:   -827  82  84
1720045242,435:  -1413  82  84
1720045242,435:  -1528  82  84
1720045242,466:  -1289  82  84
1720045242,466:   -948  82  84
1720045242,466:   -689  82  84
1720045242,466:   -571  82  84
1720045242,466:   -582  82  84
1720045242,466:   -686  82  84
1720045242,466:   -823  82  84
1720045242,466:   -924  82  84
1720045242,466:   -968  82  84
1720045242,466:   -996  82  84
1720045242,466:  -1064  82  84
1720045242,466:  -1174  82  84
1720045242,466:  -1265  82  84
1720045242,466:  -1296  82  84
1720045242,466:  -1284  82  84
1720045242,466:  -1277  82  84
1720045242,466:  -1290  82  84
1720045242,466:  -1304  82  84
1720045242,466:  -1305  82  84
1720045242,466:  -1306  82  84
1720045242,466:  -1324  82  84
1720045242,466:  -1341  82  84
1720045242,466:  -1316  82  84
1720045242,497:  -1229  82  84
1720045242,497:  -1116  82  84
1720045242,497:  -1034  82  84
1720045242,497:  -1006  82  84
1720045242,497:  -1000  82  84
1720045242,497:   -983  82  84
1720045242,497:   -956  82  84
1720045242,497:   -947  82  84
1720045242,497:   -958  82  84
1720045242,497:   -956  82  84
1720045242,497:   -906  82  84
1720045242,497:   -824  82  84
1720045242,497:   -760  82  84
1720045242,497:   -742  82  84
1720045242,497:   -746  82  84
1720045242,527:   -731  82  84
1720045242,527:   -693  82  84
1720045242,527:   -664  82  84
1720045242,527:   -672  82  84
1720045242,527:   -694  82  84
1720045242,527:   -686  82  84
1720045242,527:   -638  82  84
1720045242,527:   -588  82  84
1720045242,527:   -574  82  84
1720045242,527:   -587  82  84
1720045242,527:   -583  82  84
1720045242,527:   -540  82  84
1720045242,527:   -489  82  84
1720045242,527:   -468  82  84
1720045242,527:   -479  82  84
1720045242,559:   -484  82  84
1720045242,559:   -461  82  84
1720045242,559:   -430  82  84
1720045242,559:   -420  82  84
1720045242,559:   -430  82  84
1720045242,559:   -431  82  84
1720045242,559:   -409  82  84
1720045242,559:   -384  82  84
1720045242,559:   -383  82  84
1720045242,559:   -397  82  84
1720045242,559:   -396  82  84
1720045242,559:   -364  82  84
1720045242,559:   -324  82  84
1720045242,559:   -306  82  84
1720045242,559:   -306  82  84
1720045242,591:   -296  82  84
1720045242,591:   -267  82  84
1720045242,591:   -241  82  84
1720045242,591:   -244  82  84
1720045242,591:   -268  82  84
1720045242,591:   -278  82  84
1720045242,591:   -259  82  84
1720045242,591:   -235  82  84
1720045242,591:   -234  82  84
1720045242,591:   -257  82  84
1720045242,591:   -271  82  84
1720045242,591:   -256  82  84
1720045242,591:   -233  82  84
1720045242,591:   -238  82  84
1720045242,591:   -276  82  84
1720045242,621:   -312  82  84
1720045242,621:   -318  82  84
1720045242,621:   -300  82  84
1720045242,621:   -294  82  84
1720045242,621:   -315  82  84
1720045242,621:   -342  82  84
1720045242,621:   -342  82  84
1720045242,621:   -321  82  84
1720045242,621:   -310  82  84
1720045242,621:   -332  82  84
1720045242,621:   -363  82  84
1720045242,621:   -366  82  84
1720045242,621:   -336  82  84
1720045242,621:   -305  82  84
1720045242,621:   -303  82  84
1720045242,651:   -318  82  84
1720045242,651:   -317  82  84
1720045242,651:   -290  82  84
1720045242,651:   -265  82  84
1720045242,651:   -269  82  84
1720045242,651:   -289  82  84
1720045242,651:   -287  82  84
1720045242,651:   -253  82  84
1720045242,651:   -213  82  84
1720045242,651:   -196  82  84
1720045242,651:   -196  82  84
1720045242,651:   -183  82  84
1720045242,651:   -147  82  84
1720045242,651:   -113  82  84
1720045242,651:   -106  82  84
1720045242,681:   -113  82  84
1720045242,681:   -103  82  84
1720045242,681:    -68  82  84
1720045242,681:    -36  82  84
1720045242,681:    -27  82  84
1720045242,681:    -28  82  84
1720045242,681:     -8  82  84
1720045242,681:     35  82  84
1720045242,681:     66  82  84
1720045242,681:     55  82  84
1720045242,681:     18  82  84
1720045242,681:     -2  82  84
1720045242,681:     16  82  84
1720045242,681:     47  82  84
1720045242,681:     51  82  84
1720045242,713:     28  82  84
1720045242,713:     14  82  84
1720045242,713:     34  82  84
1720045242,713:     73  82  84
1720045242,713:     94  82  84
1720045242,713:     89  82  84
1720045242,713:     82  82  84
1720045242,713:     98  82  84
1720045242,713:    128  82  84
1720045242,713:    142  82  84
1720045242,713:    128  82  84
1720045242,713:    111  82  84
1720045242,713:    118  82  84
1720045242,713:    142  82  84
1720045242,713:    151  82  84
1720045242,745:    133  82  84
1720045242,745:    112  82  84
1720045242,745:    118  82  84
1720045242,745:    154  82  84
1720045242,745:    187  82  84
1720045242,745:    192  82  84
1720045242,745:    178  82  84
1720045242,745:    173  82  84
1720045242,745:    182  82  84
1720045242,745:    185  82  84
1720045242,745:    167  82  84
1720045242,745:    137  82  84
1720045242,745:    124  82  84
1720045242,745:    134  82  84
1720045242,745:    148  82  84
1720045242,775:    148  82  84
1720045242,775:    140  82  84
1720045242,775:    145  82  84
1720045242,775:    167  82  84
1720045242,775:    186  82  84
1720045242,775:    183  82  84
1720045242,775:    164  82  84
1720045242,775:    152  82  84
1720045242,775:    157  82  84
1720045242,775:    166  82  84
1720045242,775:    167  82  84
1720045242,775:    163  82  84
1720045242,775:    169  82  84
1720045242,775:    183  82  84
1720045242,775:    191  82  84
1720045242,775:    180  82  84
1720045242,775:    163  82  84
1720045242,775:    158  82  84
1720045242,775:    170  82  84
1720045242,775:    182  82  84
1720045242,775:    176  82  84
1720045242,775:    157  82  84
1720045242,805:    149  82  84
1720045242,805:    162  82  84
1720045242,805:    185  82  84
1720045242,805:    195  82  84
1720045242,805:    185  82  84
1720045242,805:    173  82  84
1720045242,805:    174  82  84
1720045242,805:    183  82  84
1720045242,805:    182  82  84
1720045242,805:    164  82  84
1720045242,805:    145  82  84
1720045242,805:    138  82  84
1720045242,805:    136  82  84
1720045242,805:    121  82  84
1720045242,805:     94  82  84
1720045242,835:     76  82  84
1720045242,835:     82  82  84
1720045242,835:     98  82  84
1720045242,835:     96  82  84
1720045242,835:     74  82  84
1720045242,835:     59  82  84
1720045242,835:     71  82  84
1720045242,835:     96  82  84
1720045242,867:     97  82  84
1720045242,867:     64  82  84
1720045242,867:     28  82  84
1720045242,867:     25  82  84
1720045242,867:     51  82  84
1720045242,867:     71  82  84
1720045242,867:     63  82  84
1720045242,867:     40  82  84
1720045242,867:     32  82  84
1720045242,867:     42  82  84
1720045242,867:     48  82  84
1720045242,867:     32  82  84
1720045242,867:      6  82  84
1720045242,867:     -8  82  84
1720045242,867:     -6  82  84
1720045242,867:     -3  82  84
1720045242,867:    -11  82  84
1720045242,867:    -21  82  84
1720045242,867:    -14  82  84
1720045242,867:      6  82  84
1720045242,867:     19  82  84
1720045242,867:     11  82  84
1720045242,899:     -5  82  84
1720045242,899:     -3  82  84
1720045242,899:     18  82  84
1720045242,899:     34  82  84
1720045242,899:     29  82  84
1720045242,899:     13  82  84
1720045242,899:     11  82  84
1720045242,899:     25  82  84
1720045242,899:     27  82  84
1720045242,899:     -2  82  84
1720045242,899:    -45  82  84
1720045242,899:    -63  82  84
1720045242,899:    -45  82  84
1720045242,899:    -24  82  84
1720045242,899:    -32  82  84
1720045242,931:    -60  82  84
1720045242,931:    -71  82  84
1720045242,931:    -50  82  84
1720045242,931:    -24  82  84
1720045242,931:    -26  82  84
1720045242,931:    -52  82  84
1720045242,931:    -67  82  84
1720045242,931:    -56  82  84
1720045242,931:    -39  82  84
1720045242,931:    -45  82  84
1720045242,931:    -67  82  84
1720045242,931:    -74  82  84
1720045242,931:    -56  82  84
1720045242,931:    -40  82  84
1720045242,931:    -56  82  84
1720045242,963:    -96  82  84
1720045242,963:   -123  82  84
1720045242,963:   -113  82  84
1720045242,963:    -86  82  84
1720045242,963:    -78  82  84
1720045242,963:    -96  82  84
1720045242,963:   -110  82  84
1720045242,963:    -97  82  84
1720045242,963:    -70  82  84
1720045242,963:    -60  82  84
1720045242,963:    -75  82  84
1720045242,963:    -92  82  84
1720045242,963:    -86  82  84
1720045242,963:    -68  82  84
1720045242,963:    -66  82  84
1720045242,995:    -89  82  84
1720045242,995:   -109  82  84
1720045242,995:   -100  82  84
1720045242,995:    -73  82  84
1720045242,995:    -67  82  84
1720045242,995:    -97  82  84
1720045242,995:   -132  82  84
1720045242,995:   -132  82  84
1720045242,995:    -98  82  84
1720045242,995:    -65  82  84
1720045242,995:    -59  82  84
1720045242,995:    -64  82  84
1720045242,995:    -49  82  84
1720045242,995:    -13  82  84
1720045242,995:     15  82  84
1720045242,995:     12  82  84
1720045242,995:     -6  82  84
1720045242,995:    -13  82  84
1720045242,995:     -5  82  84
1720045242,995:     -7  82  84
1720045242,995:    -35  82  84
1720045242,995:    -70  82  84
1720045242,995:    -82  82  84
1720045243,027:    -69  82  84
1720045243,027:    -65  82  84
1720045243,027:    -98  82  84
1720045243,027:   -150  82  84
1720045243,027:   -184  82  84
1720045243,027:   -183  82  84
1720045243,027:   -173  82  84
1720045243,027:   -189  82  84
1720045243,027:   -232  82  84
1720045243,027:   -271  82  84
1720045243,027:   -283  82  84
1720045243,027:   -278  82  84
1720045243,027:   -282  82  84
1720045243,027:   -300  82  84
1720045243,027:   -313  82  84
1720045243,059:   -306  82  84
1720045243,059:   -286  82  84
1720045243,059:   -273  82  84
1720045243,059:   -269  82  84
1720045243,059:   -260  82  84
1720045243,059:   -240  82  84
1720045243,059:   -223  82  84
1720045243,059:   -226  82  84
1720045243,059:   -242  82  84
1720045243,059:   -251  82  84
1720045243,059:   -245  82  84
1720045243,059:   -235  82  84
1720045243,059:   -236  82  84
1720045243,059:   -240  82  84
1720045243,059:   -226  82  84
1720045243,090:   -191  82  84
1720045243,090:   -159  82  84
1720045243,090:   -155  82  84
1720045243,090:   -177  82  84
1720045243,090:   -193  82  84
1720045243,090:   -184  82  84
1720045243,090:   -160  82  84
1720045243,090:   -154  82  84
1720045243,090:   -173  82  84
1720045243,090:   -196  82  84
1720045243,090:   -200  82  84
1720045243,090:   -178  82  84
1720045243,090:   -151  82  84
1720045243,090:   -136  82  84
1720045243,090:   -123  82  84
1720045243,121:   -102  82  84
1720045243,121:    -89  82  84
1720045243,121:   -110  82  84
1720045243,121:   -170  82  84
1720045243,121:   -230  82  84
1720045243,121:   -264  82  84
1720045243,121:   -292  82  84
1720045243,121:   -369  82  84
1720045243,121:   -507  82  84
1720045243,121:   -625  82  84
1720045243,121:   -603  82  84
1720045243,121:   -378  82  84
1720045243,121:     39  82  84
1720045243,121:    656  82  84
1720045243,121:   1542  82  84
1720045243,153:   2736  82  84
1720045243,153:   4098  82  84
1720045243,153:   5346  82  84
1720045243,153:   6283  82  84
1720045243,153:   6971  82  84
1720045243,153:   7582  82  84
1720045243,153:   8070  82  84
1720045243,153:   8080  82  84
1720045243,153:   7269  82  84
1720045243,153:   5728  82  84
1720045243,153:   3990  82  84
1720045243,153:   2579  82  84
1720045243,153:   1591  82  84
1720045243,153:    741  82  84
1720045243,153:   -199  82  84
1720045243,183:  -1114  83  82
1720045243,183:  -1693  83  82
1720045243,183:  -1779  83  82
1720045243,183:  -1517  83  82
1720045243,183:  -1186  83  82
1720045243,183:   -962  83  82
1720045243,183:   -880  83  82
1720045243,183:   -917  83  82
1720045243,183:  -1047  83  82
1720045243,183:  -1226  83  82
1720045243,183:  -1376  83  82
1720045243,183:  -1444  83  82
1720045243,183:  -1452  83  82
1720045243,183:  -1467  83  82
1720045243,183:  -1527  83  82
1720045243,213:  -1596  83  82
1720045243,213:  -1626  83  82
1720045243,213:  -1613  83  82
1720045243,213:  -1595  83  82
1720045243,213:  -1597  83  82
1720045243,213:  -1616  83  82
1720045243,213:  -1636  83  82
1720045243,213:  -1651  83  82
1720045243,213:  -1662  83  82
1720045243,213:  -1659  83  82
1720045243,213:  -1618  83  82
1720045243,213:  -1526  83  82
1720045243,213:  -1410  83  82
1720045243,213:  -1321  83  82
1720045243,213:  -1289  83  82
1720045243,243:  -1294  83  82
1720045243,243:  -1295  83  82
1720045243,243:  -1275  83  82
1720045243,243:  -1252  83  82
1720045243,243:  -1239  83  82
1720045243,243:  -1225  83  82
1720045243,243:  -1187  83  82
1720045243,243:  -1124  83  82
1720045243,243:  -1069  83  82
1720045243,243:  -1050  83  82
1720045243,243:  -1056  83  82
1720045243,243:  -1054  83  82
1720045243,243:  -1026  83  82
1720045243,243:   -989  83  82
1720045243,243:   -963  83  82
1720045243,273:   -940  83  82
1720045243,273:   -898  83  82
1720045243,273:   -836  83  82
1720045243,273:   -784  83  82
1720045243,273:   -770  83  82
1720045243,273:   -780  83  82
1720045243,273:   -782  83  82
1720045243,273:   -762  83  82
1720045243,273:   -737  83  82
1720045243,273:   -727  83  82
1720045243,273:   -724  83  82
1720045243,273:   -703  83  82
1720045243,273:   -661  83  82
1720045243,273:   -625  83  82
1720045243,273:   -617  83  82
1720045243,303:   -625  83  82
1720045243,303:   -618  83  82
1720045243,303:   -587  83  82
1720045243,303:   -555  83  82
1720045243,303:   -547  83  82
1720045243,303:   -557  83  82
1720045243,303:   -555  83  82
1720045243,303:   -529  83  82
1720045243,303:   -498  83  82
1720045243,303:   -490  83  82
1720045243,303:   -499  83  82
1720045243,303:   -497  83  82
1720045243,303:   -469  83  82
1720045243,303:   -437  83  82
1720045243,303:   -431  83  82
1720045243,335:   -448  83  82
1720045243,335:   -455  83  82
1720045243,335:   -430  83  82
1720045243,335:   -397  83  82
1720045243,335:   -398  83  82
1720045243,335:   -438  83  82
1720045243,335:   -477  83  82
1720045243,335:   -474  83  82
1720045243,335:   -439  83  82
1720045243,335:   -419  83  82
1720045243,335:   -436  83  82
1720045243,335:   -462  83  82
1720045243,335:   -459  83  82
1720045243,335:   -434  83  82
1720045243,335:   -428  83  82
1720045243,335:   -462  83  82
1720045243,335:   -508  83  82
1720045243,335:   -523  83  82
1720045243,335:   -508  83  82
1720045243,367:   -500  83  82
1720045243,367:   -522  83  82
1720045243,367:   -551  83  82
1720045243,367:   -547  83  82
1720045243,367:   -511  83  82
1720045243,367:   -480  83  82
1720045243,367:   -485  83  82
1720045243,367:   -507  83  82
1720045243,367:   -510  83  82
1720045243,367:   -484  83  82
1720045243,367:   -456  83  82
1720045243,367:   -452  83  82
1720045243,367:   -460  83  82
1720045243,367:   -452  83  82
1720045243,367:   -417  83  82
1720045243,397:   -382  83  82
1720045243,397:   -373  83  82
1720045243,397:   -380  83  82
1720045243,397:   -374  83  82
1720045243,397:   -338  83  82
1720045243,397:   -296  83  82
1720045243,397:   -276  83  82
1720045243,397:   -279  83  82
1720045243,397:   -274  83  82
1720045243,397:   -244  83  82
1720045243,397:   -206  83  82
1720045243,397:   -189  83  82
1720045243,397:   -197  83  82
1720045243,397:   -201  83  82
1720045243,397:   -180  83  82
1720045243,429:   -150  83  82
1720045243,429:   -142  83  82
1720045243,429:   -159  83  82
1720045243,429:   -169  83  82
1720045243,429:   -148  83  82
1720045243,429:   -113  83  82
1720045243,429:   -102  83  82
1720045243,429:   -126  83  82
1720045243,429:   -152  83  82
1720045243,429:   -144  83  82
1720045243,429:   -108  83  82
1720045243,429:    -85  83  82
1720045243,429:    -94  83  82
1720045243,429:   -111  83  82
1720045243,429:   -101  83  82
1720045243,461:    -67  83  82
1720045243,461:    -46  83  82
1720045243,461:    -59  83  82
1720045243,461:    -86  83  82
1720045243,461:    -92  83  82
1720045243,461:    -71  83  82
1720045243,461:    -53  83  82
1720045243,461:    -60  83  82
1720045243,461:    -77  83  82
1720045243,461:    -74  83  82
1720045243,461:    -50  83  82
1720045243,461:    -34  83  82
1720045243,461:    -45  83  82
1720045243,461:    -68  83  82
1720045243,461:    -74  83  82
1720045243,493:    -57  83  82
1720045243,493:    -42  83  82
1720045243,493:    -51  83  82
1720045243,493:    -71  83  82
1720045243,493:    -76  83  82
1720045243,493:    -61  83  82
1720045243,493:    -50  83  82
1720045243,493:    -67  83  82
1720045243,493:    -96  83  82
1720045243,493:   -106  83  82
1720045243,493:    -90  83  82
1720045243,493:    -70  83  82
1720045243,493:    -74  83  82
1720045243,493:    -93  83  82
1720045243,493:    -95  83  82
1720045243,493:    -72  83  82
1720045243,493:    -50  83  82
1720045243,493:    -60  83  82
1720045243,493:    -94  83  82
1720045243,493:   -114  83  82
1720045243,493:   -102  83  82
1720045243,493:    -81  83  82
1720045243,493:    -82  83  82
1720045243,525:   -107  83  82
1720045243,525:   -120  83  82
1720045243,525:   -106  83  82
1720045243,525:    -86  83  82
1720045243,525:    -94  83  82
1720045243,525:   -128  83  82
1720045243,525:   -149  83  82
1720045243,525:   -135  83  82
1720045243,525:   -107  83  82
1720045243,525:   -100  83  82
1720045243,525:   -121  83  82
1720045243,525:   -142  83  82
1720045243,525:   -139  83  82
1720045243,525:   -126  83  82
1720045243,525:   -137  83  82
1720045243,556:   -175  83  82
1720045243,556:   -210  83  82
1720045243,556:   -213  83  82
1720045243,556:   -190  83  82
1720045243,556:   -175  83  82
1720045243,556:   -182  83  82
1720045243,556:   -194  83  82
1720045243,556:   -187  83  82
1720045243,556:   -163  83  82
1720045243,556:   -152  83  82
1720045243,556:   -171  83  82
1720045243,556:   -205  83  82
1720045243,556:   -222  83  82
1720045243,556:   -219  83  82
1720045243,556:   -215  83  82
1720045243,586:   -227  83  82
1720045243,586:   -245  83  82
1720045243,586:   -244  83  82
1720045243,586:   -223  83  82
1720045243,586:   -209  83  82
1720045243,586:   -224  83  82
1720045243,586:   -252  83  82
1720045243,586:   -258  83  82
1720045243,586:   -232  83  82
1720045243,586:   -206  83  82
1720045243,586:   -212  83  82
1720045243,586:   -244  83  82
1720045243,586:   -260  83  82
1720045243,586:   -243  83  82
1720045243,586:   -218  83  82
1720045243,617:   -228  83  82
1720045243,617:   -271  83  82
1720045243,617:   -305  83  82
1720045243,617:   -304  83  82
1720045243,617:   -287  83  82
1720045243,617:   -291  83  82
1720045243,617:   -319  83  82
1720045243,617:   -334  83  82
1720045243,617:   -314  83  82
1720045243,617:   -285  83  82
1720045243,617:   -285  83  82
1720045243,617:   -316  83  82
1720045243,617:   -336  83  82
1720045243,617:   -320  83  82
1720045243,617:   -287  83  82
1720045243,649:   -279  83  82
1720045243,649:   -302  83  82
1720045243,649:   -322  83  82
1720045243,649:   -309  83  82
1720045243,649:   -276  83  82
1720045243,649:   -262  83  82
1720045243,649:   -279  83  82
1720045243,649:   -301  83  82
1720045243,649:   -298  83  82
1720045243,649:   -276  83  82
1720045243,649:   -265  83  82
1720045243,649:   -280  83  82
1720045243,649:   -302  83  82
1720045243,649:   -307  83  82
1720045243,649:   -299  83  82
1720045243,681:   -305  83  82
1720045243,681:   -333  83  82
1720045243,681:   -364  83  82
1720045243,681:   -371  83  82
1720045243,681:   -356  83  82
1720045243,681:   -342  83  82
1720045243,681:   -344  83  82
1720045243,681:   -349  83  82
1720045243,681:   -338  83  82
1720045243,681:   -313  83  82
1720045243,681:   -298  83  82
1720045243,681:   -306  83  82
1720045243,681:   -321  83  82
1720045243,681:   -320  83  82
1720045243,681:   -300  83  82
1720045243,711:   -284  83  82
1720045243,711:   -287  83  82
1720045243,711:   -294  83  82
1720045243,711:   -281  83  82
1720045243,711:   -250  83  82
1720045243,711:   -230  83  82
1720045243,711:   -244  83  82
1720045243,711:   -274  83  82
1720045243,711:   -286  83  82
1720045243,711:   -269  83  82
1720045243,711:   -246  83  82
1720045243,711:   -244  83  82
1720045243,711:   -254  83  82
1720045243,711:   -246  83  82
1720045243,711:   -206  83  82
1720045243,711:   -160  83  82
1720045243,711:   -144  83  82
1720045243,711:   -157  83  82
1720045243,711:   -166  83  82
1720045243,711:   -145  83  82
1720045243,711:   -115  83  82
1720045243,711:   -112  83  82
1720045243,741:   -147  83  82
1720045243,741:   -186  83  82
1720045243,741:   -200  83  82
1720045243,741:   -194  83  82
1720045243,741:   -202  83  82
1720045243,741:   -239  83  82
1720045243,741:   -283  83  82
1720045243,741:   -304  83  82
1720045243,771:   -304  83  82
1720045243,771:   -309  83  82
1720045243,771:   -335  83  82
1720045243,771:   -367  83  82
1720045243,771:   -387  83  82
1720045243,771:   -402  83  82
1720045243,771:   -430  83  82
1720045243,771:   -476  83  82
1720045243,771:   -515  83  82
1720045243,771:   -526  83  82
1720045243,771:   -520  83  82
1720045243,771:   -522  83  82
1720045243,771:   -539  83  82
1720045243,771:   -546  83  82
1720045243,771:   -528  83  82
1720045243,801:   -501  83  82
1720045243,801:   -498  83  82
1720045243,801:   -526  83  82
1720045243,801:   -557  83  82
1720045243,801:   -566  83  82
1720045243,801:   -560  83  82
1720045243,801:   -563  83  82
1720045243,801:   -585  83  82
1720045243,801:   -606  83  82
1720045243,801:   -606  83  82
1720045243,801:   -597  83  82
1720045243,801:   -603  83  82
1720045243,801:   -633  83  82
1720045243,801:   -663  83  82
1720045243,801:   -669  83  82
1720045243,801:   -658  83  82
1720045243,801:   -656  83  82
1720045243,801:   -677  83  82
1720045243,801:   -704  83  82
1720045243,801:   -708  83  82
1720045243,801:   -690  83  82
1720045243,801:   -680  83  82
1720045243,831:   -695  83  82
1720045243,831:   -714  83  82
1720045243,831:   -702  83  82
1720045243,831:   -655  83  82
1720045243,831:   -608  83  82
1720045243,831:   -600  83  82
1720045243,831:   -636  83  82
1720045243,831:   -686  83  82
1720045243,831:   -723  83  82
1720045243,831:   -752  83  82
1720045243,831:   -806  83  82
1720045243,831:   -904  83  82
1720045243,831:  -1033  83  82
1720045243,831:  -1157  83  82
1720045243,831:  -1227  83  82
1720045243,863:  -1180  83  82
1720045243,863:   -952  83  82
1720045243,863:   -482  83  82
1720045243,863:    291  83  82
1720045243,863:   1395  83  82
1720045243,863:   2769  83  82
1720045243,863:   4237  83  82
1720045243,863:   5584  83  82
1720045243,863:   6701  83  82
1720045243,863:   7637  83  82
1720045243,863:   8448  83  82
1720045243,863:   8990  83  82
1720045243,863:   8908  83  82
1720045243,863:   7944  83  82
1720045243,863:   6251  83  82
1720045243,895:   4358  83  82
1720045243,895:   2772  83  82
1720045243,895:   1599  83  82
1720045243,895:    588  83  82
1720045243,895:   -487  83  82
1720045243,895:  -1531  83  82
1720045243,895:  -2220  83  82
1720045243,895:  -2344  83  82
1720045243,895:  -2022  83  82
1720045243,895:  -1588  83  82
1720045243,895:  -1321  83  82
1720045243,895:  -1296  83  82
1720045243,895:  -1421  83  82
1720045243,895:  -1581  83  82
1720045243,895:  -1723  83  82
1720045243,927:  -1843  83  82
1720045243,927:  -1948  83  82
1720045243,927:  -2030  83  82
1720045243,927:  -2090  83  82
1720045243,927:  -2141  83  82
1720045243,927:  -2191  83  82
1720045243,927:  -2228  83  82
1720045243,927:  -2229  83  82
1720045243,927:  -2186  83  82
1720045243,927:  -2126  83  82
1720045243,927:  -2093  83  82
1720045243,927:  -2108  83  82
1720045243,927:  -2142  83  82
1720045243,927:  -2150  83  82
1720045243,927:  -2116  83  82
1720045243,957:  -2053  83  82
1720045243,957:  -1979  83  82
1720045243,957:  -1897  83  82
1720045243,957:  -1806  83  82
1720045243,957:  -1726  83  82
1720045243,957:  -1687  83  82
1720045243,957:  -1693  83  82
1720045243,957:  -1712  83  82
1720045243,957:  -1702  83  82
1720045243,957:  -1653  83  82
1720045243,957:  -1592  83  82
1720045243,957:  -1544  83  82
1720045243,957:  -1505  83  82
1720045243,957:  -1454  83  82
1720045243,957:  -1391  83  82
1720045243,989:  -1344  83  82
1720045243,989:  -1332  83  82
1720045243,989:  -1339  83  82
1720045243,989:  -1325  83  82
1720045243,989:  -1274  83  82
1720045243,989:  -1212  83  82
1720045243,989:  -1176  83  82
1720045243,989:  -1168  83  82
1720045243,989:  -1152  83  82
1720045243,989:  -1106  83  82
1720045243,989:  -1048  83  82
1720045243,989:  -1012  83  82
1720045243,989:  -1002  83  82
1720045243,989:   -989  83  82
1720045243,989:   -948  83  82
1720045244,020:   -895  83  82
1720045244,020:   -869  83  82
1720045244,020:   -878  83  82
1720045244,020:   -888  83  82
1720045244,020:   -866  83  82
1720045244,020:   -820  83  82
1720045244,020:   -783  83  82
1720045244,020:   -775  83  82
1720045244,020:   -773  83  82
1720045244,020:   -750  83  82
1720045244,020:   -709  83  82
1720045244,020:   -678  83  82
1720045244,020:   -673  83  82
1720045244,020:   -677  83  82
1720045244,020:   -661  83  82
1720045244,052:   -625  83  82
1720045244,052:   -596  83  82
1720045244,052:   -587  83  82
1720045244,052:   -583  83  82
1720045244,052:   -563  83  82
1720045244,052:   -530  83  82
1720045244,052:   -513  83  82
1720045244,052:   -524  83  82
1720045244,052:   -542  83  82
1720045244,052:   -541  83  82
1720045244,052:   -526  83  82
1720045244,052:   -520  83  82
1720045244,052:   -531  83  82
1720045244,052:   -538  83  82
1720045244,052:   -515  83  82
1720045244,052:   -473  83  82
1720045244,052:   -450  83  82
1720045244,052:   -465  83  82
1720045244,052:   -489  83  82
1720045244,052:   -485  83  82
1720045244,052:   -453  83  82
1720045244,052:   -431  83  82
1720045244,052:   -444  83  82
1720045244,084:   -475  83  82
1720045244,084:   -482  83  82
1720045244,084:   -460  83  82
1720045244,084:   -442  83  82
1720045244,084:   -456  83  82
1720045244,084:   -483  83  82
1720045244,084:   -482  83  82
1720045244,084:   -444  83  82
1720045244,084:   -407  83  82
1720045244,084:   -403  83  82
1720045244,084:   -421  83  82
1720045244,084:   -416  83  82
1720045244,084:   -372  83  82
1720045244,084:   -325  83  82
1720045244,084:   -318  83  82
1720045244,116:   -345  83  82
1720045244,116:   -357  83  82
1720045244,116:   -324  83  82
1720045244,116:   -270  83  82
1720045244,116:   -240  83  82
1720045244,116:   -237  83  82
1720045244,116:   -224  83  82
1720045244,148:   -177  83  82
1720045244,148:   -121  83  82
1720045244,148:    -98  83  82
1720045244,148:   -111  83  82
1720045244,148:   -119  83  82
1720045244,148:    -88  83  82
1720045244,148:    -39  83  82
1720045244,148:    -18  83  82
1720045244,148:    -35  83  82
1720045244,148:    -51  83  82
1720045244,148:    -30  83  82
1720045244,148:     11  83  82
1720045244,148:     29  83  82
1720045244,148:      6  83  82
1720045244,148:    -21  83  82
1720045244,148:    -14  83  82
1720045244,148:     23  83  82
1720045244,148:     48  83  82
1720045244,148:     43  83  82
1720045244,148:     31  83  82
1720045244,148:     46  83  82
1720045244,148:     86  83  82
1720045244,148:    117  83  82
1720045244,180:    117  83  82
1720045244,180:    102  83  82
1720045244,180:    101  83  82
1720045244,180:    122  83  82
1720045244,180:    142  83  82
1720045244,180:    146  83  82
1720045244,180:    145  83  82
1720045244,180:    154  83  82
1720045244,180:    172  83  82
1720045244,180:    176  83  82
1720045244,180:    154  83  82
1720045244,180:    123  83  82
1720045244,180:    110  83  82
1720045244,180:    117  83  82
1720045244,180:    127  83  82
1720045244,211:    124  83  82
1720045244,211:    119  83  82
1720045244,211:    131  83  82
1720045244,211:    157  83  82
1720045244,211:    174  83  82
1720045244,211:    169  83  82
1720045244,211:    152  83  82
1720045244,211:    150  83  82
1720045244,211:    168  83  82
1720045244,211:    180  83  82
1720045244,211:    166  83  82
1720045244,211:    141  83  82
1720045244,211:    137  83  82
1720045244,211:    164  83  82
1720045244,211:    193  83  82
1720045244,241:    190  83  82
1720045244,241:    156  83  82
1720045244,241:    130  83  82
1720045244,241:    136  83  82
1720045244,241:    158  83  82
1720045244,241:    165  83  82
1720045244,241:    149  83  82
1720045244,241:    142  83  82
1720045244,241:    165  83  82
1720045244,241:    200  83  82
1720045244,241:    207  83  82
1720045244,241:    180  83  82
1720045244,241:    153  83  82
1720045244,241:    161  83  82
1720045244,241:    194  83  82
1720045244,272:    213  83  82
1720045244,272:    202  83  82
1720045244,272:    185  83  82
1720045244,272:    195  83  82
1720045244,272:    225  83  82
1720045244,272:    239  83  82
1720045244,272:    220  83  82
1720045244,272:    188  83  82
1720045244,272:    175  83  82
1720045244,272:    181  83  82
1720045244,272:    182  83  82
1720045244,272:    165  83  82
1720045244,272:    147  83  82
1720045244,272:    153  83  82
1720045244,272:    178  83  82
1720045244,272:    193  83  82
1720045244,272:    182  83  82
1720045244,272:    160  83  82
1720045244,272:    153  83  82
1720045244,272:    160  83  82
1720045244,272:    161  83  82
1720045244,272:    145  83  82
1720045244,302:    128  83  82
1720045244,302:    131  83  82
1720045244,302:    146  83  82
1720045244,302:    146  83  82
1720045244,302:    120  83  82
1720045244,302:     92  83  82
1720045244,302:     92  83  82
1720045244,302:    118  83  82
1720045244,302:    136  83  82
1720045244,302:    124  83  82
1720045244,302:    104  83  82
1720045244,302:    117  83  82
1720045244,302:    168  83  82
1720045244,302:    212  83  82
1720045244,302:    210  83  82
1720045244,332:    169  83  82
1720045244,332:    142  83  82
1720045244,332:    157  83  82
1720045244,332:    188  83  82
1720045244,332:    188  83  82
1720045244,332:    151  83  82
1720045244,332:    117  83  82
1720045244,332:    121  83  82
1720045244,361:    147  83  82
1720045244,361:    150  83  82
1720045244,361:    117  83  82
1720045244,361:     84  83  82
1720045244,361:     87  83  82
1720045244,361:    119  83  82
1720045244,361:    139  83  82
1720045244,361:    132  83  82
1720045244,361:    120  83  82
1720045244,361:    132  83  82
1720045244,361:    156  83  82
1720045244,361:    159  83  82
1720045244,393:    127  83  82
1720045244,393:     93  83  82
1720045244,393:     87  83  82
1720045244,393:    103  83  82
1720045244,393:    109  83  82
1720045244,393:     97  83  82
1720045244,393:     91  83  82
1720045244,393:    113  83  82
1720045244,393:    147  83  82
1720045244,393:    157  83  82
1720045244,393:    135  83  82
1720045244,393:    116  83  82
1720045244,393:    131  83  82
1720045244,393:    167  83  82
1720045244,393:    183  83  82
1720045244,393:    161  83  82
1720045244,393:    132  83  82
1720045244,393:    136  83  82
1720045244,393:    170  83  82
1720045244,393:    190  83  82
1720045244,393:    167  83  82
1720045244,393:    124  83  82
1720045244,393:    109  83  82
1720045244,425:    137  83  82
1720045244,425:    178  83  82
1720045244,425:    196  83  82
1720045244,425:    195  83  82
1720045244,425:    205  83  82
1720045244,425:    234  83  82
1720045244,425:    252  83  82
1720045244,425:    235  83  82
1720045244,425:    202  83  82
1720045244,425:    196  83  82
1720045244,425:    227  83  82
1720045244,425:    249  83  82
1720045244,425:    225  83  82
1720045244,425:    176  83  82
1720045244,425:    159  83  82
1720045244,455:    190  83  82
1720045244,455:    224  83  82
1720045244,455:    212  83  82
1720045244,455:    170  83  82
1720045244,455:    157  83  82
1720045244,455:    196  83  82
1720045244,455:    247  83  82
1720045244,455:    261  83  82
1720045244,455:    250  83  82
1720045244,455:    266  83  82
1720045244,455:    324  83  82
1720045244,455:    374  83  82
1720045244,455:    367  83  82
1720045244,455:    318  83  82
1720045244,455:    285  83  82
1720045244,485:    296  83  82
1720045244,485:    313  83  82
1720045244,485:    288  83  82
1720045244,485:    226  83  82
1720045244,485:    182  83  82
1720045244,485:    186  83  82
1720045244,485:    208  83  82
1720045244,485:    198  83  82
1720045244,485:    150  83  82
1720045244,485:    107  83  82
1720045244,485:    101  83  82
1720045244,485:    117  83  82
1720045244,485:    112  83  82
1720045244,485:     72  83  82
1720045244,485:     30  83  82
1720045244,517:     20  83  82
1720045244,517:     35  83  82
1720045244,517:     35  83  82
1720045244,517:      0  83  82
1720045244,517:    -38  83  82
1720045244,517:    -36  83  82
1720045244,517:      8  83  82
1720045244,517:     45  83  82
1720045244,517:     33  83  82
1720045244,517:    -11  83  82
1720045244,517:    -29  83  82
1720045244,517:      4  83  82
1720045244,517:     48  83  82
1720045244,517:     44  83  82
1720045244,517:     -7  83  82
1720045244,549:    -47  83  82
1720045244,549:    -34  83  82
1720045244,549:      9  83  82
1720045244,549:     25  83  82
1720045244,549:      2  83  82
1720045244,549:    -18  83  82
1720045244,549:      2  83  82
1720045244,549:     38  83  82
1720045244,549:     45  83  82
1720045244,549:     15  83  82
1720045244,549:     -3  83  82
1720045244,549:     26  83  82
1720045244,549:     78  83  82
1720045244,549:     99  83  82
1720045244,549:     80  83  82
1720045244,580:     65  83  82
1720045244,580:     96  83  82
1720045244,580:    149  83  82
1720045244,580:    173  83  82
1720045244,580:    162  83  82
1720045244,580:    161  83  82
1720045244,580:    192  83  82
1720045244,580:    218  83  82
1720045244,580:    184  83  82
1720045244,580:     90  83  82
1720045244,580:    -18  83  82
1720045244,580:   -116  83  82
1720045244,580:   -229  83  82
1720045244,580:   -383  83  82
1720045244,580:   -529  83  82
1720045244,580:   -546  83  82
1720045244,580:   -330  83  82
1720045244,580:    164  83  82
1720045244,580:    961  83  82
1720045244,580:   2102  83  82
1720045244,580:   3587  83  82
1720045244,580:   5270  83  82
1720045244,612:   6884  83  83
1720045244,612:   8231  83  83
1720045244,612:   9319  83  83
1720045244,612:  10257  83  83
1720045244,612:  10968  83  83
1720045244,612:  11085  83  83
1720045244,612:  10236  83  83
1720045244,612:   8467  83  83
1720045244,612:   6319  83  83
1720045244,612:   4419  83  83
1720045244,612:   2984  83  83
1720045244,612:   1766  83  83
1720045244,612:    469  83  83
1720045244,612:   -837  83  83
1720045244,612:  -1770  83  83
1720045244,643:  -2040  83  83
1720045244,643:  -1751  83  83
1720045244,643:  -1281  83  83
1720045244,643:   -957  83  83
1720045244,643:   -866  83  83
1720045244,643:   -932  83  83
1720045244,643:  -1072  83  83
1720045244,643:  -1249  83  83
1720045244,643:  -1434  83  83
1720045244,643:  -1587  83  83
1720045244,643:  -1701  83  83
1720045244,643:  -1809  83  83
1720045244,643:  -1937  83  83
1720045244,643:  -2050  83  83
1720045244,643:  -2080  83  83
1720045244,675:  -2014  83  83
1720045244,675:  -1908  83  83
1720045244,675:  -1833  83  83
1720045244,675:  -1813  83  83
1720045244,675:  -1819  83  83
1720045244,675:  -1815  83  83
1720045244,675:  -1798  83  83
1720045244,675:  -1785  83  83
1720045244,675:  -1771  83  83
1720045244,675:  -1724  83  83
1720045244,675:  -1627  83  83
1720045244,675:  -1509  83  83
1720045244,675:  -1427  83  83
1720045244,675:  -1404  83  83
1720045244,675:  -1410  83  83
1720045244,706:  -1395  83  83
1720045244,706:  -1342  83  83
1720045244,706:  -1276  83  83
1720045244,706:  -1216  83  83
1720045244,706:  -1147  83  83
1720045244,706:  -1065  83  83
1720045244,706:   -997  83  83
1720045244,706:   -975  83  83
1720045244,706:   -993  83  83
1720045244,706:  -1005  83  83
1720045244,706:   -989  83  83
1720045244,706:   -972  83  83
1720045244,706:   -974  83  83
1720045244,706:   -966  83  83
1720045244,706:   -898  83  83
1720045244,738:   -781  83  83
1720045244,738:   -704  83  83
1720045244,738:   -728  83  83
1720045244,738:   -804  83  83
1720045244,738:   -828  83  83
1720045244,738:   -764  83  83
1720045244,738:   -691  83  83
1720045244,738:   -689  83  83
1720045244,738:   -734  83  83
1720045244,738:   -730  83  83
1720045244,738:   -644  83  83
1720045244,738:   -543  83  83
1720045244,738:   -506  83  83
1720045244,738:   -518  83  83
1720045244,738:   -509  83  83
1720045244,770:   -460  83  83
1720045244,770:   -427  83  83
1720045244,770:   -447  83  83
1720045244,770:   -478  83  83
1720045244,770:   -451  83  83
1720045244,770:   -382  83  83
1720045244,770:   -361  83  83
1720045244,770:   -431  83  83
1720045244,770:   -526  83  83
1720045244,770:   -543  83  83
1720045244,770:   -480  83  83
1720045244,770:   -439  83  83
1720045244,770:   -488  83  83
1720045244,770:   -572  83  83
1720045244,770:   -576  83  83
1720045244,801:   -458  83  83
1720045244,801:   -298  83  83
1720045244,801:   -203  83  83
1720045244,801:   -191  83  83
1720045244,801:   -194  83  83
1720045244,801:   -145  83  83
1720045244,801:    -59  83  83
1720045244,801:      3  83  83
1720045244,801:      3  83  83
1720045244,801:    -37  83  83
1720045244,801:    -77  83  83
1720045244,801:   -104  83  83
1720045244,801:   -128  83  83
1720045244,801:   -156  83  83
1720045244,801:   -168  83  83
1720045244,801:   -153  83  83
1720045244,801:   -123  83  83
1720045244,801:   -107  83  83
1720045244,801:   -114  83  83
1720045244,801:   -120  83  83
1720045244,801:   -103  83  83
1720045244,801:    -74  83  83
1720045244,801:    -68  83  83
1720045244,831:   -100  83  83
1720045244,831:   -143  83  83
1720045244,831:   -161  83  83
1720045244,831:   -153  83  83
1720045244,831:   -153  83  83
1720045244,831:   -179  83  83
1720045244,831:   -206  83  83
1720045244,861:   -194  83  83
1720045244,861:   -148  83  83
1720045244,861:   -110  83  83
1720045244,861:   -112  83  83
1720045244,861:   -134  83  83
1720045244,861:   -127  83  83
1720045244,861:    -74  83  83
1720045244,861:     -9  83  83
1720045244,861:     23  83  83
1720045244,861:     18  83  83
1720045244,861:      9  83  83
1720045244,861:     28  83  83
1720045244,861:     62  83  83
1720045244,861:     78  83  83
1720045244,861:     66  83  83
1720045244,861:     57  83  83
1720045244,861:     83  83  83
1720045244,861:    138  83  83
1720045244,861:    178  83  83
1720045244,861:    176  83  83
1720045244,861:    154  83  83
1720045244,861:    158  83  83
1720045244,861:    205  83  83
1720045244,906:    259  83  83
1720045244,906:    268  83  83
1720045244,906:    225  83  83
1720045244,906:    174  83  83
1720045244,906:    163  83  83
1720045244,906:    196  83  83
1720045244,906:    237  83  83
1720045244,906:    254  83  83
1720045244,906:    247  83  83
1720045244,906:    240  83  83
1720045244,906:    247  83  83
1720045244,906:    261  83  83
1720045244,906:    267  83  83
1720045244,906:    263  83  83
1720045244,906:    260  83  83
1720045244,906:    270  83  83
1720045244,906:    292  83  83
1720045244,906:    313  83  83
1720045244,906:    326  83  83
1720045244,906:    332  83  83
1720045244,906:    343  83  83
1720045244,906:    356  83  83
1720045244,936:    358  83  83
1720045244,936:    335  83  83
1720045244,936:    288  83  83
1720045244,936:    239  83  83
1720045244,936:    213  83  83
1720045244,936:    217  83  83
1720045244,936:    238  83  83
1720045244,936:    255  83  83
1720045244,936:    260  83  83
1720045244,936:    260  83  83
1720045244,936:    272  83  83
1720045244,936:    308  83  83
1720045244,936:    360  83  83
1720045244,936:    407  83  83
1720045244,936:    426  83  83
1720045244,966:    415  83  83
1720045244,966:    390  83  83
1720045244,966:    370  83  83
1720045244,966:    357  83  83
1720045244,966:    338  83  83
1720045244,966:    307  83  83
1720045244,966:    278  83  83
1720045244,966:    268  83  83
1720045244,966:    277  83  83
1720045244,966:    285  83  83
1720045244,966:    278  83  83
1720045244,966:    265  83  83
1720045244,966:    261  83  83
1720045244,966:    266  83  83
1720045244,966:    260  83  83
1720045244,996:    233  83  83
1720045244,996:    204  83  83
1720045244,996:    204  83  83
1720045244,996:    238  83  83
1720045244,996:    279  83  83
1720045244,996:    296  83  83
1720045244,996:    288  83  83
1720045244,996:    278  83  83
1720045245,026:    277  83  83
1720045245,026:    271  83  83
1720045245,026:    243  83  83
1720045245,026:    201  83  83
1720045245,026:    175  83  83
1720045245,026:    183  83  83
1720045245,026:    208  83  83
1720045245,026:    218  83  83
1720045245,026:    200  83  83
1720045245,026:    176  83  83
1720045245,026:    167  83  83
1720045245,026:    173  83  83
1720045245,026:    174  83  83
1720045245,026:    161  83  83
1720045245,026:    149  83  83
1720045245,026:    155  83  83
1720045245,026:    175  83  83
1720045245,026:    188  83  83
1720045245,026:    187  83  83
1720045245,026:    184  83  83
1720045245,026:    189  83  83
1720045245,026:    196  83  83
1720045245,056:    190  83  83
1720045245,056:    171  83  83
1720045245,056:    161  83  83
1720045245,056:    171  83  83
1720045245,056:    188  83  83
1720045245,056:    188  83  83
1720045245,056:    171  83  83
1720045245,056:    156  83  83
1720045245,056:    157  83  83
1720045245,056:    163  83  83
1720045245,056:    158  83  83
1720045245,056:    143  83  83
1720045245,056:    140  83  83
1720045245,056:    156  83  83
1720045245,056:    175  83  83
1720045245,087:    177  83  83
1720045245,087:    167  83  83
1720045245,087:    164  83  83
1720045245,087:    173  83  83
1720045245,087:    178  83  83
1720045245,087:    164  83  83
1720045245,087:    141  83  83
1720045245,087:    133  83  83
1720045245,087:    147  83  83
1720045245,087:    165  83  83
1720045245,087:    167  83  83
1720045245,087:    157  83  83
1720045245,087:    155  83  83
1720045245,087:    165  83  83
1720045245,087:    174  83  83
1720045245,119:    166  83  83
1720045245,119:    144  83  83
1720045245,119:    126  83  83
1720045245,119:    121  83  83
1720045245,119:    118  83  83
1720045245,119:    106  83  83
1720045245,119:     88  83  83
1720045245,119:     77  83  83
1720045245,119:     80  83  83
1720045245,119:     85  83  83
1720045245,119:     76  83  83
1720045245,119:     52  83  83
1720045245,119:     29  83  83
1720045245,119:     26  83  83
1720045245,119:     37  83  83
1720045245,151:     44  83  83
1720045245,151:     37  83  83
1720045245,151:     27  83  83
1720045245,151:     29  83  83
1720045245,151:     43  83  83
1720045245,151:     51  83  83
1720045245,151:     42  83  83
1720045245,151:     24  83  83
1720045245,151:     17  83  83
1720045245,151:     24  83  83
1720045245,151:     32  83  83
1720045245,151:     27  83  83
1720045245,151:     12  83  83
1720045245,151:      3  83  83
1720045245,151:      7  83  83
1720045245,183:     16  83  83
1720045245,183:     16  83  83
1720045245,183:      7  83  83
1720045245,183:     -3  83  83
1720045245,183:     -2  83  83
1720045245,183:      8  83  83
1720045245,183:     16  83  83
1720045245,183:     18  83  83
1720045245,183:     17  83  83
1720045245,183:     16  83  83
1720045245,183:     16  83  83
1720045245,183:     16  83  83
1720045245,183:     16  83  83
1720045245,183:     24  83  83
1720045245,183:     40  83  83
1720045245,183:     57  83  83
1720045245,183:     63  83  83
1720045245,183:     59  83  83
1720045245,183:     53  83  83
1720045245,183:     49  83  83
1720045245,183:     43  83  83
1720045245,183:     31  83  83
1720045245,183:     23  83  83
1720045245,215:     35  83  83
1720045245,215:     70  83  83
1720045245,215:    110  83  83
1720045245,215:    141  83  83
1720045245,215:    168  83  83
1720045245,215:    206  83  83
1720045245,215:    256  83  83
1720045245,247:    296  83  83
1720045245,247:    302  83  83
1720045245,247:    279  83  83
1720045245,247:    253  83  83
1720045245,247:    241  83  83
1720045245,247:    237  83  83
1720045245,247:    222  83  83
1720045245,247:    196  83  83
1720045245,247:    175  83  83
1720045245,247:    173  83  83
1720045245,247:    183  83  83
1720045245,247:    189  83  83
1720045245,247:    182  83  83
1720045245,247:    171  83  83
1720045245,247:    163  83  83
1720045245,247:    153  83  83
1720045245,247:    135  83  83
1720045245,247:    107  83  83
1720045245,247:     81  83  83
1720045245,247:     59  83  83
1720045245,247:     37  83  83
1720045245,247:      8  83  83
1720045245,247:    -18  83  83
1720045245,279:    -26  83  83
1720045245,279:    -10  83  83
1720045245,279:     17  83  83
1720045245,279:     34  83  83
1720045245,279:     37  83  83
1720045245,279:     37  83  83
1720045245,279:     45  83  83
1720045245,279:     57  83  83
1720045245,279:     62  83  83
1720045245,279:     58  83  83
1720045245,279:     55  83  83
1720045245,279:     60  83  83
1720045245,279:     73  83  83
1720045245,279:     85  83  83
1720045245,279:     97  83  83
1720045245,311:    112  83  83
1720045245,311:    130  83  83
1720045245,311:    140  83  83
1720045245,311:    135  83  83
1720045245,311:    120  83  83
1720045245,311:    113  83  83
1720045245,311:    125  83  83
1720045245,311:    148  83  83
1720045245,311:    162  83  83
1720045245,311:    157  83  83
1720045245,311:    140  83  83
1720045245,311:    122  83  83
1720045245,311:    118  83  83
1720045245,311:    132  83  83
1720045245,311:    154  83  83
1720045245,343:    172  83  83
1720045245,343:    180  83  83
1720045245,343:    177  83  83
1720045245,343:    165  83  83
1720045245,343:    149  83  83
1720045245,343:    130  83  83
1720045245,343:    102  83  83
1720045245,343:     46  83  83
1720045245,343:    -50  83  83
1720045245,343:   -175  83  83
1720045245,343:   -280  83  83
1720045245,343:   -289  83  83
1720045245,343:   -142  83  83
1720045245,343:    188  83  83
1720045245,343:    730  83  83
1720045245,375:   1546  83  83
1720045245,375:   2669  83  83
1720045245,375:   4005  83  83
1720045245,375:   5324  83  83
1720045245,375:   6414  83  83
1720045245,375:   7257  83  83
1720045245,375:   7982  83  83
1720045245,375:   8606  83  83
1720045245,375:   8857  83  83
1720045245,375:   8358  83  83
1720045245,375:   7032  83  83
1720045245,375:   5273  83  83
1720045245,375:   3658  83  83
1720045245,375:   2472  83  83
1720045245,375:   1551  83  83
1720045245,375:    601  83  83
1720045245,375:   -413  83  83
1720045245,375:  -1217  83  83
1720045245,375:  -1534  83  83
1720045245,407:  -1370  79  82
1720045245,407:   -990  79  82
1720045245,407:   -673  79  82
1720045245,407:   -539  79  82
1720045245,407:   -564  79  82
1720045245,407:   -681  79  82
1720045245,407:   -835  79  82
1720045245,407:   -984  79  82
1720045245,407:  -1089  79  82
1720045245,407:  -1148  79  82
1720045245,407:  -1195  79  82
1720045245,407:  -1266  79  82
1720045245,407:  -1354  79  82
1720045245,407:  -1413  79  82
1720045245,407:  -1417  79  82
1720045245,437:  -1381  79  82
1720045245,437:  -1345  79  82
1720045245,437:  -1341  79  82
1720045245,437:  -1370  79  82
1720045245,437:  -1408  79  82
1720045245,437:  -1434  79  82
1720045245,437:  -1437  79  82
1720045245,437:  -1415  79  82
1720045245,437:  -1362  79  82
1720045245,437:  -1280  79  82
1720045245,437:  -1186  79  82
1720045245,437:  -1114  79  82
1720045245,437:  -1085  79  82
1720045245,437:  -1093  79  82
1720045245,437:  -1108  79  82
1720045245,469:  -1103  79  82
1720045245,469:  -1074  79  82
1720045245,469:  -1035  79  82
1720045245,469:   -997  79  82
1720045245,469:   -959  79  82
1720045245,469:   -911  79  82
1720045245,469:   -857  79  82
1720045245,469:   -809  79  82
1720045245,469:   -782  79  82
1720045245,469:   -777  79  82
1720045245,469:   -777  79  82
1720045245,469:   -766  79  82
1720045245,469:   -737  79  82
1720045245,469:   -701  79  82
1720045245,469:   -674  79  82
1720045245,499:   -663  79  82
1720045245,499:   -661  79  82
1720045245,499:   -654  79  82
1720045245,499:   -635  79  82
1720045245,499:   -609  79  82
1720045245,499:   -583  79  82
1720045245,499:   -557  79  82
1720045245,499:   -529  79  82
1720045245,499:   -496  79  82
1720045245,499:   -462  79  82
1720045245,499:   -429  79  82
1720045245,499:   -399  79  82
1720045245,499:   -368  79  82
1720045245,499:   -341  79  82
1720045245,499:   -324  79  82
1720045245,531:   -314  79  82
1720045245,531:   -304  79  82
1720045245,531:   -288  79  82
1720045245,531:   -270  79  82
1720045245,531:   -264  79  82
1720045245,531:   -274  79  82
1720045245,531:   -287  79  82
1720045245,531:   -286  79  82
1720045245,531:   -268  79  82
1720045245,531:   -245  79  82
1720045245,531:   -230  79  82
1720045245,531:   -220  79  82
1720045245,531:   -206  79  82
1720045245,531:   -190  79  82
1720045245,531:   -186  79  82
1720045245,531:   -208  79  82
1720045245,531:   -245  79  82
1720045245,531:   -272  79  82
1720045245,531:   -275  79  82
1720045245,531:   -265  79  82
1720045245,531:   -258  79  82
1720045245,531:   -257  79  82
1720045245,531:   -249  79  82
1720045245,563:   -226  79  82
1720045245,563:   -197  79  82
1720045245,563:   -181  79  82
1720045245,563:   -184  79  82
1720045245,563:   -201  79  82
1720045245,563:   -220  79  82
1720045245,563:   -243  79  82
1720045245,563:   -271  79  82
1720045245,563:   -297  79  82
1720045245,563:   -307  79  82
1720045245,563:   -298  79  82
1720045245,563:   -276  79  82
1720045245,563:   -257  79  82
1720045245,563:   -251  79  82
1720045245,563:   -259  79  82
1720045245,595:   -268  79  82
1720045245,595:   -266  79  82
1720045245,595:   -247  79  82
1720045245,595:   -223  79  82
1720045245,595:   -215  79  82
1720045245,595:   -229  79  82
1720045245,595:   -248  79  82
1720045245,595:   -250  79  82
1720045245,595:   -226  79  82
1720045245,595:   -191  79  82
1720045245,595:   -161  79  82
1720045245,595:   -137  79  82
1720045245,595:   -115  79  82
1720045245,595:    -95  79  82
1720045245,595:    -83  79  82
1720045245,627:    -78  79  82
1720045245,627:    -67  79  82
1720045245,627:    -40  79  82
1720045245,627:     -8  79  82
1720045245,627:     14  79  82
1720045245,627:     20  79  82
1720045245,627:     30  79  82
1720045245,627:     61  79  82
1720045245,627:    109  79  82
1720045245,627:    152  79  82
1720045245,627:    166  79  82
1720045245,627:    151  79  82
1720045245,627:    125  79  82
1720045245,627:    107  79  82
1720045245,627:    105  79  82
1720045245,659:    108  79  82
1720045245,659:    103  79  82
1720045245,659:     86  79  82
1720045245,659:     65  79  82
1720045245,659:     58  79  82
1720045245,659:     71  79  82
1720045245,659:     96  79  82
1720045245,659:    118  79  82
1720045245,659:    127  79  82
1720045245,659:    130  79  82
1720045245,659:    136  79  82
1720045245,659:    151  79  82
1720045245,659:    169  79  82
1720045245,659:    182  79  82
1720045245,659:    187  79  82
1720045245,691:    191  79  82
1720045245,691:    197  79  82
1720045245,691:    204  79  82
1720045245,691:    209  79  82
1720045245,691:    210  79  82
1720045245,691:    210  79  82
1720045245,691:    213  79  82
1720045245,691:    213  79  82
1720045245,691:    206  79  82
1720045245,691:    196  79  82
1720045245,691:    191  79  82
1720045245,691:    197  79  82
1720045245,691:    208  79  82
1720045245,691:    214  79  82
1720045245,691:    213  79  82
1720045245,691:    216  79  82
1720045245,691:    232  79  82
1720045245,691:    259  79  82
1720045245,691:    281  79  82
1720045245,691:    289  79  82
1720045245,691:    286  79  82
1720045245,691:    286  79  82
1720045245,721:    295  79  82
1720045245,721:    305  79  82
1720045245,721:    303  79  82
1720045245,721:    280  79  82
1720045245,721:    247  79  82
1720045245,721:    217  79  82
1720045245,721:    198  79  82
1720045245,721:    183  79  82
1720045245,752:    160  79  82
1720045245,752:    132  79  82
1720045245,752:    113  79  82
1720045245,752:    118  79  82
1720045245,752:    142  79  82
1720045245,752:    164  79  82
1720045245,752:    171  79  82
1720045245,752:    169  79  82
1720045245,752:    170  79  82
1720045245,752:    176  79  82
1720045245,752:    179  79  82
1720045245,752:    171  79  82
1720045245,752:    160  79  82
1720045245,752:    158  79  82
1720045245,752:    161  79  82
1720045245,752:    158  79  82
1720045245,752:    145  79  82
1720045245,752:    134  79  82
1720045245,752:    138  79  82
1720045245,752:    149  79  82
1720045245,752:    151  79  82
1720045245,752:    136  79  82
1720045245,782:    124  79  82
1720045245,782:    138  79  82
1720045245,782:    177  79  82
1720045245,782:    214  79  82
1720045245,782:    226  79  82
1720045245,782:    217  79  82
1720045245,782:    207  79  82
1720045245,782:    205  79  82
1720045245,812:    200  79  82
1720045245,812:    175  79  82
1720045245,812:    138  79  82
1720045245,812:    116  79  82
1720045245,812:    126  79  82
1720045245,812:    155  79  82
1720045245,812:    171  79  82
1720045245,812:    162  79  82
1720045245,812:    142  79  82
1720045245,812:    135  79  82
1720045245,812:    142  79  82
1720045245,812:    139  79  82
1720045245,812:    115  79  82
1720045245,812:     86  79  82
1720045245,812:     80  79  82
1720045245,812:    104  79  82
1720045245,812:    134  79  82
1720045245,812:    144  79  82
1720045245,812:    137  79  82
1720045245,812:    129  79  82
1720045245,812:    129  79  82
1720045245,812:    125  79  82
1720045245,842:    105  79  82
1720045245,842:     80  79  82
1720045245,842:     77  79  82
1720045245,842:    107  79  82
1720045245,842:    146  79  82
1720045245,842:    164  79  82
1720045245,842:    154  79  82
1720045245,842:    137  79  82
1720045245,872:    130  79  82
1720045245,872:    128  79  82
1720045245,872:    113  79  82
1720045245,872:     86  79  82
1720045245,872:     67  79  82
1720045245,872:     75  79  82
1720045245,872:    102  79  82
1720045245,872:    118  79  82
1720045245,872:    110  79  82
1720045245,872:     91  79  82
1720045245,872:     83  79  82
1720045245,872:     88  79  82
1720045245,872:     90  79  82
1720045245,872:     82  79  82
1720045245,872:     78  79  82
1720045245,902:     91  79  82
1720045245,902:    114  79  82
1720045245,902:    127  79  82
1720045245,902:    121  79  82
1720045245,902:    112  79  82
1720045245,902:    115  79  82
1720045245,902:    124  79  82
1720045245,902:    123  79  82
1720045245,902:    109  79  82
1720045245,902:    104  79  82
1720045245,902:    124  79  82
1720045245,902:    156  79  82
1720045245,902:    171  79  82
1720045245,902:    158  79  82
1720045245,902:    141  79  82
1720045245,902:    144  79  82
1720045245,902:    162  79  82
1720045245,902:    165  79  82
1720045245,902:    142  79  82
1720045245,902:    117  79  82
1720045245,902:    123  79  82
1720045245,902:    158  79  82
1720045245,933:    184  79  82
1720045245,933:    171  79  82
1720045245,933:    138  79  82
1720045245,933:    123  79  82
1720045245,933:    141  79  82
1720045245,933:    165  79  82
1720045245,933:    166  79  82
1720045245,933:    153  79  82
1720045245,933:    157  79  82
1720045245,933:    188  79  82
1720045245,933:    218  79  82
1720045245,933:    217  79  82
1720045245,933:    196  79  82
1720045245,933:    191  79  82
1720045245,933:    216  79  82
1720045245,965:    245  79  82
1720045245,965:    245  79  82
1720045245,965:    219  79  82
1720045245,965:    203  79  82
1720045245,965:    215  79  82
1720045245,965:    239  79  82
1720045245,965:    245  79  82
1720045245,965:    231  79  82
1720045245,965:    219  79  82
1720045245,965:    224  79  82
1720045245,965:    231  79  82
1720045245,965:    227  79  82
1720045245,965:    214  79  82
1720045245,965:    214  79  82
1720045245,965:    227  79  82
1720045245,995:    233  79  82
1720045245,995:    213  79  82
1720045245,995:    179  79  82
1720045245,995:    161  79  82
1720045245,995:    177  79  82
1720045245,995:    213  79  82
1720045245,995:    242  79  82
1720045245,995:    257  79  82
1720045245,995:    271  79  82
1720045245,995:    295  79  82
1720045245,995:    321  79  82
1720045245,995:    336  79  82
1720045245,995:    338  79  82
1720045245,995:    335  79  82
1720045245,995:    331  79  82
1720045246,027:    315  79  82
1720045246,027:    279  79  82
1720045246,027:    238  79  82
1720045246,027:    214  79  82
1720045246,027:    214  79  82
1720045246,027:    215  79  82
1720045246,027:    196  79  82
1720045246,027:    167  79  82
1720045246,027:    158  79  82
1720045246,027:    181  79  82
1720045246,027:    206  79  82
1720045246,027:    195  79  82
1720045246,027:    147  79  82
1720045246,027:    100  79  82
1720045246,027:     83  79  82
1720045246,059:     80  79  82
1720045246,059:     55  79  82
1720045246,059:     -3  79  82
1720045246,059:    -60  79  82
1720045246,059:    -78  79  82
1720045246,059:    -58  79  82
1720045246,059:    -31  79  82
1720045246,059:    -21  79  82
1720045246,059:    -20  79  82
1720045246,059:     -9  79  82
1720045246,059:     10  79  82
1720045246,059:     15  79  82
1720045246,059:     -3  79  82
1720045246,059:    -29  79  82
1720045246,059:    -38  79  82
1720045246,059:    -28  79  82
1720045246,059:    -18  79  82
1720045246,059:    -24  79  82
1720045246,059:    -36  79  82
1720045246,059:    -29  79  82
1720045246,059:      0  79  82
1720045246,059:     33  79  82
1720045246,059:     47  79  82
1720045246,090:     40  79  82
1720045246,090:     34  79  82
1720045246,090:     43  79  82
1720045246,090:     59  79  82
1720045246,090:     62  79  82
1720045246,090:     53  79  82
1720045246,090:     47  79  82
1720045246,120:     61  79  82
1720045246,120:     84  79  82
1720045246,120:    103  79  82
1720045246,120:    118  79  82
1720045246,120:    140  79  82
1720045246,120:    178  79  82
1720045246,120:    214  79  82
1720045246,120:    214  79  82
1720045246,120:    169  79  82
1720045246,120:    113  79  82
1720045246,120:     84  79  82
1720045246,120:     63  79  82
1720045246,120:     -9  79  82
1720045246,120:   -161  79  82
1720045246,120:   -338  79  82
1720045246,150:   -432  79  82
1720045246,150:   -365  79  82
1720045246,150:   -130  79  82
1720045246,150:    269  79  82
1720045246,150:    906  79  82
1720045246,150:   1904  79  82
1720045246,150:   3275  79  82
1720045246,150:   4818  79  82
1720045246,150:   6227  79  82
1720045246,150:   7342  79  82
1720045246,150:   8254  79  82
1720045246,150:   9108  79  82
1720045246,150:   9794  79  82
1720045246,150:   9906  79  82
1720045246,150:   9086  79  82
1720045246,180:   7420  77  80
1720045246,180:   5449  77  80
1720045246,180:   3738  77  80
1720045246,180:   2455  77  80
1720045246,180:   1363  77  80
1720045246,180:    216  77  80
1720045246,180:   -923  77  80
1720045246,180:  -1732  77  80
1720045246,180:  -1967  77  80
1720045246,180:  -1695  77  80
1720045246,180:  -1220  77  80
1720045246,180:   -835  77  80
1720045246,180:   -675  77  80
1720045246,180:   -715  77  80
1720045246,180:   -860  77  80
1720045246,180:  -1018  77  80
1720045246,180:  -1139  77  80
1720045246,180:  -1230  77  80
1720045246,180:  -1325  77  80
1720045246,180:  -1450  77  80
1720045246,180:  -1585  77  80
1720045246,180:  -1684  77  80
1720045246,180:  -1720  77  80
1720045246,210:  -1715  77  80
1720045246,210:  -1697  77  80
1720045246,210:  -1673  77  80
1720045246,210:  -1640  77  80
1720045246,210:  -1615  77  80
1720045246,210:  -1623  77  80
1720045246,210:  -1661  77  80
1720045246,241:  -1686  77  80
1720045246,241:  -1651  77  80
1720045246,241:  -1551  77  80
1720045246,241:  -1427  77  80
1720045246,241:  -1328  77  80
1720045246,241:  -1272  77  80
1720045246,241:  -1248  77  80
1720045246,241:  -1239  77  80
1720045246,241:  -1242  77  80
1720045246,241:  -1245  77  80
1720045246,241:  -1229  77  80
1720045246,241:  -1175  77  80
1720045246,241:  -1096  77  80
1720045246,241:  -1025  77  80
1720045246,241:   -985  77  80
1720045246,273:   -966  77  80
1720045246,273:   -943  77  80
1720045246,273:   -911  77  80
1720045246,273:   -889  77  80
1720045246,273:   -886  77  80
1720045246,273:   -890  77  80
1720045246,273:   -877  77  80
1720045246,273:   -844  77  80
1720045246,273:   -814  77  80
1720045246,273:   -802  77  80
1720045246,273:   -798  77  80
1720045246,273:   -778  77  80
1720045246,273:   -740  77  80
1720045246,273:   -706  77  80
1720045246,273:   -692  77  80
1720045246,273:   -687  77  80
1720045246,273:   -665  77  80
1720045246,273:   -619  77  80
1720045246,273:   -570  77  80
1720045246,273:   -544  77  80
1720045246,273:   -542  77  80
1720045246,273:   -543  77  80
1720045246,273:   -527  77  80
1720045246,305:   -500  77  80
1720045246,305:   -479  77  80
1720045246,305:   -473  77  80
1720045246,305:   -472  77  80
1720045246,305:   -463  77  80
1720045246,305:   -446  77  80
1720045246,305:   -437  77  80
1720045246,305:   -443  77  80
1720045246,305:   -451  77  80
1720045246,305:   -446  77  80
1720045246,305:   -425  77  80
1720045246,305:   -406  77  80
1720045246,305:   -401  77  80
1720045246,305:   -404  77  80
1720045246,305:   -399  77  80
1720045246,336:   -379  77  80
1720045246,336:   -356  77  80
1720045246,336:   -346  77  80
1720045246,336:   -348  77  80
1720045246,336:   -350  77  80
1720045246,336:   -342  77  80
1720045246,336:   -334  77  80
1720045246,336:   -334  77  80
1720045246,336:   -342  77  80
1720045246,336:   -343  77  80
1720045246,336:   -329  77  80
1720045246,336:   -307  77  80
1720045246,336:   -292  77  80
1720045246,336:   -287  77  80
1720045246,336:   -287  77  80
1720045246,367:   -280  77  80
1720045246,367:   -269  77  80
1720045246,367:   -257  77  80
1720045246,367:   -248  77  80
1720045246,367:   -238  77  80
1720045246,367:   -232  77  80
1720045246,367:   -236  77  80
1720045246,367:   -250  77  80
1720045246,367:   -259  77  80
1720045246,367:   -249  77  80
1720045246,367:   -223  77  80
1720045246,367:   -206  77  80
1720045246,397:   -210  77  80
1720045246,397:   -223  77  80
1720045246,397:   -219  77  80
1720045246,397:   -191  77  80
1720045246,397:   -161  77  80
1720045246,397:   -156  77  80
1720045246,397:   -171  77  80
1720045246,397:   -178  77  80
1720045246,397:   -158  77  80
1720045246,397:   -121  77  80
1720045246,397:    -92  77  80
1720045246,397:    -78  77  80
1720045246,397:    -64  77  80
1720045246,397:    -38  77  80
1720045246,397:     -6  77  80
1720045246,397:     15  77  80
1720045246,397:     20  77  80
1720045246,397:     25  77  80
1720045246,397:     38  77  80
1720045246,397:     54  77  80
1720045246,397:     64  77  80
1720045246,397:     66  77  80
1720045246,397:     71  77  80
1720045246,428:     85  77  80
1720045246,428:    101  77  80
1720045246,428:    110  77  80
1720045246,428:    114  77  80
1720045246,428:    125  77  80
1720045246,428:    146  77  80
1720045246,428:    167  77  80
1720045246,428:    175  77  80
1720045246,428:    176  77  80
1720045246,428:    187  77  80
1720045246,428:    212  77  80
1720045246,428:    233  77  80
1720045246,428:    228  77  80
1720045246,428:    198  77  80
1720045246,428:    173  77  80
1720045246,460:    177  77  80
1720045246,460:    203  77  80
1720045246,460:    219  77  80
1720045246,460:    207  77  80
1720045246,460:    187  77  80
1720045246,460:    193  77  80
1720045246,460:    229  77  80
1720045246,460:    263  77  80
1720045246,460:    265  77  80
1720045246,460:    241  77  80
1720045246,460:    226  77  80
1720045246,460:    238  77  80
1720045246,460:    257  77  80
1720045246,460:    252  77  80
1720045246,460:    224  77  80
1720045246,492:    203  77  80
1720045246,492:    209  77  80
1720045246,492:    228  77  80
1720045246,492:    226  77  80
1720045246,492:    198  77  80
1720045246,492:    174  77  80
1720045246,492:    179  77  80
1720045246,492:    206  77  80
1720045246,492:    223  77  80
1720045246,492:    214  77  80
1720045246,492:    199  77  80
1720045246,492:    203  77  80
1720045246,492:    225  77  80
1720045246,492:    238  77  80
1720045246,492:    223  77  80
1720045246,524:    192  77  80
1720045246,524:    172  77  80
1720045246,524:    172  77  80
1720045246,524:    179  77  80
1720045246,524:    180  77  80
1720045246,524:    173  77  80
1720045246,524:    167  77  80
1720045246,524:    164  77  80
1720045246,524:    158  77  80
1720045246,524:    148  77  80
1720045246,524:    144  77  80
1720045246,524:    149  77  80
1720045246,524:    156  77  80
1720045246,524:    155  77  80
1720045246,524:    148  77  80
1720045246,555:    151  77  80
1720045246,555:    171  77  80
1720045246,555:    192  77  80
1720045246,555:    192  77  80
1720045246,555:    171  77  80
1720045246,555:    151  77  80
1720045246,555:    150  77  80
1720045246,555:    159  77  80
1720045246,555:    160  77  80
1720045246,555:    148  77  80
1720045246,555:    138  77  80
1720045246,555:    142  77  80
1720045246,555:    154  77  80
1720045246,555:    157  77  80
1720045246,555:    145  77  80
1720045246,594:    133  77  80
1720045246,594:    136  77  80
1720045246,594:    150  77  80
1720045246,594:    157  77  80
1720045246,594:    148  77  80
1720045246,594:    138  77  80
1720045246,594:    144  77  80
1720045246,594:    160  77  80
1720045246,594:    167  77  80
1720045246,594:    154  77  80
1720045246,594:    133  77  80
1720045246,594:    125  77  80
1720045246,594:    132  77  80
1720045246,594:    137  77  80
1720045246,594:    127  77  80
1720045246,594:    111  77  80
1720045246,594:    111  77  80
1720045246,594:    128  77  80
1720045246,594:    140  77  80
1720045246,594:    132  77  80
1720045246,594:    112  77  80
1720045246,594:    104  77  80
1720045246,619:    116  77  80
1720045246,619:    134  77  80
1720045246,619:    140  77  80
1720045246,619:    136  77  80
1720045246,619:    134  77  80
1720045246,619:    137  77  80
1720045246,619:    140  77  80
1720045246,619:    138  77  80
1720045246,619:    137  77  80
1720045246,619:    145  77  80
1720045246,619:    160  77  80
1720045246,619:    168  77  80
1720045246,619:    161  77  80
1720045246,619:    149  77  80
1720045246,619:    147  77  80
1720045246,650:    154  77  80
1720045246,650:    155  77  80
1720045246,650:    135  77  80
1720045246,650:    102  77  80
1720045246,650:     77  77  80
1720045246,650:     71  77  80
1720045246,650:     77  77  80
1720045246,650:     78  77  80
1720045246,650:     76  77  80
1720045246,650:     84  77  80
1720045246,650:    107  77  80
1720045246,650:    132  77  80
1720045246,650:    138  77  80
1720045246,650:    122  77  80
1720045246,650:    108  77  80
1720045246,681:    111  77  80
1720045246,681:    125  77  80
1720045246,681:    124  77  80
1720045246,681:    100  77  80
1720045246,681:     71  77  80
1720045246,681:     61  77  80
1720045246,681:     70  77  80
1720045246,681:     76  77  80
1720045246,681:     65  77  80
1720045246,681:     49  77  80
1720045246,681:     51  77  80
1720045246,681:     69  77  80
1720045246,681:     83  77  80
1720045246,681:     78  77  80
1720045246,681:     68  77  80
1720045246,713:     74  77  80
1720045246,713:     98  77  80
1720045246,713:    114  77  80
1720045246,713:    100  77  80
1720045246,713:     68  77  80
1720045246,713:     47  77  80
1720045246,713:     52  77  80
1720045246,713:     68  77  80
1720045246,713:     73  77  80
1720045246,713:     63  77  80
1720045246,713:     54  77  80
1720045246,713:     56  77  80
1720045246,713:     58  77  80
1720045246,713:     49  77  80
1720045246,713:     36  77  80
1720045246,745:     38  77  80
1720045246,745:     57  77  80
1720045246,745:     76  77  80
1720045246,745:     73  77  80
1720045246,745:     55  77  80
1720045246,745:     48  77  80
1720045246,745:     63  77  80
1720045246,745:     86  77  80
1720045246,745:     91  77  80
1720045246,745:     73  77  80
1720045246,745:     54  77  80
1720045246,745:     54  77  80
1720045246,745:     68  77  80
1720045246,745:     79  77  80
1720045246,745:     77  77  80
1720045246,777:     69  77  80
1720045246,777:     69  77  80
1720045246,777:     73  77  80
1720045246,777:     71  77  80
1720045246,777:     62  77  80
1720045246,777:     61  77  80
1720045246,777:     83  77  80
1720045246,777:    123  77  80
1720045246,777:    161  77  80
1720045246,777:    183  77  80
1720045246,777:    196  77  80
1720045246,777:    218  77  80
1720045246,777:    248  77  80
1720045246,777:    270  77  80
1720045246,777:    267  77  80
1720045247,096:    247  77  80
1720045247,096:    230  77  80
1720045247,096:    229  77  80
1720045247,096:    230  77  80
1720045247,096:    217  77  80
1720045247,096:    196  77  80
1720045247,096:    182  77  80
1720045247,096:    183  77  80
1720045247,096:    185  77  80
1720045247,096:    172  77  80
1720045247,096:    145  77  80
1720045247,096:    121  77  80
1720045247,096:    106  77  80
1720045247,096:     91  77  80
1720045247,096:     65  77  80
1720045247,096:     34  77  80
1720045247,096:     15  77  80
1720045247,096:     10  77  80
1720045247,096:      4  77  80
1720045247,096:    -13  77  80
1720045247,096:    -30  77  80
1720045247,096:    -28  77  80
1720045247,096:     -4  77  80
1720045247,096:     18  77  80
1720045247,096:     20  77  80
1720045247,096:     11  77  80
1720045247,096:     13  77  80
1720045247,096:     35  77  80
1720045247,096:     58  77  80
1720045247,096:     62  77  80
1720045247,096:     51  77  80
1720045247,096:     47  77  80
1720045247,096:     56  77  80
1720045247,096:     64  77  80
1720045247,096:     55  77  80
1720045247,096:     39  77  80
1720045247,096:     37  77  80
1720045247,096:     54  77  80
1720045247,096:     66  77  80
1720045247,096:     54  77  80
1720045247,096:     25  77  80
1720045247,096:     11  77  80
1720045247,096:     24  77  80
1720045247,096:     45  77  80
1720045247,096:     50  77  80
1720045247,096:     36  77  80
1720045247,096:     24  77  80
1720045247,096:     36  77  80
1720045247,096:     72  77  80
1720045247,096:    106  77  80
1720045247,096:    125  77  80
1720045247,096:    129  77  80
1720045247,096:    121  77  80
1720045247,096:     98  77  80
1720045247,096:     61  77  80
1720045247,096:     24  77  80
1720045247,096:     -6  77  80
1720045247,096:    -48  77  80
1720045247,096:   -128  77  80
1720045247,096:   -244  77  80
1720045247,096:   -335  77  80
1720045247,096:   -310  77  80
1720045247,096:   -111  77  80
1720045247,096:    272  77  80
1720045247,128:    868  77  80
1720045247,128:   1751  77  80
1720045247,128:   2959  77  80
1720045247,128:   4363  77  80
1720045247,128:   5692  77  80
1720045247,128:   6734  77  80
1720045247,128:   7515  77  80
1720045247,128:   8193  77  80
1720045247,128:   8749  77  80
1720045247,128:   8852  77  80
1720045247,128:   8128  77  80
1720045247,128:   6586  77  80
1720045247,128:   4713  77  80
1720045247,128:   3090  77  80
1720045247,128:   1921  77  80
1720045247,128:    979  77  80
1720045247,128:    -17  77  80
1720045247,128:  -1033  77  80
1720045247,128:  -1751  77  80
1720045247,128:  -1925  77  80
1720045247,128:  -1631  77  80
1720045247,128:  -1176  77  80
1720045247,128:   -827  77  80
1720045247,128:   -674  77  80
1720045247,128:   -673  77  80
1720045247,128:   -759  77  80
1720045247,128:   -890  77  80
1720045247,128:  -1029  77  80
1720045247,128:  -1139  77  80
1720045247,128:  -1212  77  80
1720045247,128:  -1274  77  80
1720045247,128:  -1356  77  80
1720045247,128:  -1444  77  80
1720045247,128:  -1493  77  80
1720045247,128:  -1481  77  80
1720045247,128:  -1431  77  80
1720045247,129:  -1386  77  80
1720045247,129:  -1375  77  80
1720045247,129:  -1396  77  80
1720045247,129:  -1425  77  80
1720045247,129:  -1440  77  80
1720045247,129:  -1433  77  80
1720045247,129:  -1399  77  80
1720045247,129:  -1336  77  80
1720045247,129:  -1250  77  80
1720045247,129:  -1161  77  80
1720045247,129:  -1097  77  80
1720045247,129:  -1071  77  80
1720045247,129:  -1071  77  80
1720045247,129:  -1076  77  80
1720045247,129:  -1070  77  80
1720045247,129:  -1052  77  80
1720045247,129:  -1026  77  80
1720045247,129:   -988  77  80
1720045247,129:   -933  77  80
1720045247,129:   -871  77  80
1720045247,129:   -826  77  80
1720045247,129:   -813  77  80
1720045247,129:   -818  77  80
1720045247,129:   -812  77  80
1720045247,129:   -782  77  80
1720045247,129:   -742  77  80
1720045247,129:   -711  77  80
1720045247,129:   -687  77  80
1720045247,224:   -650  78  79
1720045247,224:   -604  78  79
1720045247,224:   -574  78  79
1720045247,224:   -576  78  79
1720045247,224:   -593  78  79
1720045247,224:   -589  78  79
1720045247,224:   -554  78  79
1720045247,224:   -516  78  79
1720045247,224:   -501  78  79
1720045247,224:   -500  78  79
1720045247,224:   -481  78  79
1720045247,224:   -439  78  79
1720045247,224:   -403  78  79
1720045247,224:   -399  78  79
1720045247,224:   -416  78  79
1720045247,224:   -418  78  79
1720045247,224:   -391  78  79
1720045247,224:   -358  78  79
1720045247,224:   -346  78  79
1720045247,224:   -350  78  79
1720045247,224:   -343  78  79
1720045247,224:   -316  78  79
1720045247,224:   -288  78  79
1720045247,224:   -283  78  79
1720045247,224:   -294  78  79
1720045247,224:   -298  78  79
1720045247,224:   -282  78  79
1720045247,224:   -261  78  79
1720045247,224:   -256  78  79
1720045247,224:   -259  78  79
1720045247,224:   -248  78  79
1720045247,224:   -215  78  79
1720045247,224:   -182  78  79
1720045247,224:   -179  78  79
1720045247,224:   -206  78  79
1720045247,224:   -233  78  79
1720045247,224:   -234  78  79
1720045247,224:   -218  78  79
1720045247,224:   -214  78  79
1720045247,224:   -234  78  79
1720045247,224:   -262  78  79
1720045247,224:   -271  78  79
1720045247,224:   -260  78  79
1720045247,224:   -253  78  79
1720045247,224:   -264  78  79
1720045247,224:   -285  78  79
1720045247,224:   -290  78  79
1720045247,224:   -275  78  79
1720045247,224:   -260  78  79
1720045247,224:   -262  78  79
1720045247,224:   -276  78  79
1720045247,224:   -280  78  79
1720045247,224:   -270  78  79
1720045247,224:   -260  78  79
1720045247,224:   -267  78  79
1720045247,224:   -285  78  79
1720045247,224:   -291  78  79
1720045247,224:   -275  78  79
1720045247,224:   -253  78  79
1720045247,224:   -247  78  79
1720045247,224:   -252  78  79
1720045247,224:   -248  78  79
1720045247,224:   -223  78  79
1720045247,224:   -196  78  79
1720045247,255:   -188  78  79
1720045247,255:   -198  78  79
1720045247,255:   -199  78  79
1720045247,255:   -176  78  79
1720045247,255:   -142  78  79
1720045247,255:   -117  78  79
1720045247,255:   -102  78  79
1720045247,255:    -79  78  79
1720045247,255:    -39  78  79
1720045247,255:     -3  78  79
1720045247,255:      5  78  79
1720045247,255:     -7  78  79
1720045247,255:    -12  78  79
1720045247,255:      8  78  79
1720045247,255:     33  78  79
1720045247,255:     37  78  79
1720045247,255:     25  78  79
1720045247,255:     29  78  79
1720045247,255:     65  78  79
1720045247,255:    107  78  79
1720045247,255:    113  78  79
1720045247,255:     80  78  79
1720045247,255:     50  78  79
1720045247,255:     61  78  79
1720045247,255:    106  78  79
1720045247,255:    142  78  79
1720045247,255:    142  78  79
1720045247,255:    127  78  79
1720045247,255:    131  78  79
1720045247,255:    164  78  79
1720045247,255:    199  78  79
1720045247,255:    211  78  79
1720045247,255:    202  78  79
1720045247,255:    193  78  79
1720045247,255:    194  78  79
1720045247,255:    195  78  79
1720045247,255:    189  78  79
1720045247,255:    185  78  79
1720045247,255:    197  78  79
1720045247,255:    220  78  79
1720045247,255:    233  78  79
1720045247,255:    224  78  79
1720045247,255:    206  78  79
1720045247,255:    200  78  79
1720045247,255:    210  78  79
1720045247,255:    219  78  79
1720045247,255:    215  78  79
1720045247,255:    205  78  79
1720045247,255:    205  78  79
1720045247,255:    214  78  79
1720045247,255:    219  78  79
1720045247,255:    210  78  79
1720045247,255:    202  78  79
1720045247,255:    210  78  79
1720045247,255:    235  78  79
1720045247,255:    256  78  79
1720045247,286:    257  78  79
1720045247,286:    245  78  79
1720045247,286:    239  78  79
1720045247,286:    244  78  79
1720045247,286:    247  78  79
1720045247,286:    235  78  79
1720045247,286:    217  78  79
1720045247,286:    212  78  79
1720045247,286:    221  78  79
1720045247,286:    229  78  79
1720045247,286:    221  78  79
1720045247,286:    206  78  79
1720045247,286:    206  78  79
1720045247,286:    227  78  79
1720045247,286:    249  78  79
1720045247,318:    251  78  79
1720045247,318:    235  78  79
1720045247,318:    225  78  79
1720045247,318:    234  78  79
1720045247,318:    250  78  79
1720045247,318:    252  78  79
1720045247,318:    238  78  79
1720045247,318:    224  78  79
1720045247,318:    223  78  79
1720045247,318:    225  78  79
1720045247,318:    217  78  79
1720045247,318:    197  78  79
1720045247,318:    181  78  79
1720045247,318:    180  78  79
1720045247,318:    187  78  79
1720045247,350:    187  78  79
1720045247,350:    175  78  79
1720045247,350:    165  78  79
1720045247,350:    167  78  79
1720045247,350:    178  78  79
1720045247,350:    180  78  79
1720045247,350:    170  78  79
1720045247,350:    161  78  79
1720045247,350:    163  78  79
1720045247,350:    174  78  79
1720045247,350:    174  78  79
1720045247,350:    157  78  79
1720045247,350:    137  78  79
1720045247,350:    136  78  79
1720045247,350:    152  78  79
1720045247,350:    163  78  79
1720045247,350:    153  78  79
1720045247,350:    131  78  79
1720045247,350:    122  78  79
1720045247,350:    134  78  79
1720045247,350:    155  78  79
1720045247,350:    164  78  79
1720045247,382:    160  78  79
1720045247,382:    153  78  79
1720045247,382:    148  78  79
1720045247,382:    136  78  79
1720045247,382:    115  78  79
1720045247,382:     96  78  79
1720045247,382:     91  78  79
1720045247,382:     92  78  79
1720045247,382:     81  78  79
1720045247,382:     54  78  79
1720045247,382:     32  78  79
1720045247,382:     37  78  79
1720045247,413:     63  78  79
1720045247,413:     82  78  79
1720045247,413:     73  78  79
1720045247,413:     52  78  79
1720045247,413:     49  78  79
1720045247,413:     75  78  79
1720045247,413:    106  78  79
1720045247,413:    113  78  79
1720045247,413:     98  78  79
1720045247,413:     85  78  79
1720045247,413:     92  78  79
1720045247,413:    106  78  79
1720045247,413:    104  78  79
1720045247,413:     80  78  79
1720045247,413:     59  78  79
1720045247,444:     63  78  79
1720045247,444:     88  78  79
1720045247,444:    110  78  79
1720045247,444:    111  78  79
1720045247,444:    104  78  79
1720045247,444:    107  78  79
1720045247,444:    124  78  79
1720045247,444:    133  78  79
1720045247,444:    121  78  79
1720045247,444:     95  78  79
1720045247,444:     81  78  79
1720045247,444:     92  78  79
1720045247,444:    113  78  79
1720045247,444:    122  78  79
1720045247,444:    113  78  79
1720045247,474:    103  78  79
1720045247,474:    107  78  79
1720045247,474:    123  78  79
1720045247,474:    132  78  79
1720045247,474:    124  78  79
1720045247,474:    108  78  79
1720045247,474:    100  78  79
1720045247,474:    101  78  79
1720045247,474:    100  78  79
1720045247,474:     90  78  79
1720045247,474:     81  78  79
1720045247,474:     84  78  79
1720045247,474:     97  78  79
1720045247,474:    104  78  79
1720045247,474:     99  78  79
1720045247,504:     95  78  79
1720045247,504:    108  78  79
1720045247,504:    131  78  79
1720045247,504:    143  78  79
1720045247,504:    131  78  79
1720045247,504:    108  78  79
1720045247,504:     96  78  79
1720045247,504:     93  78  79
1720045247,504:     84  78  79
1720045247,504:     59  78  79
1720045247,504:     33  78  79
1720045247,504:     28  78  79
1720045247,504:     44  78  79
1720045247,504:     66  78  79
1720045247,504:     83  78  79
1720045247,536:    101  78  79
1720045247,536:    130  78  79
1720045247,536:    162  78  79
1720045247,536:    181  78  79
1720045247,536:    186  78  79
1720045247,536:    192  78  79
1720045247,536:    208  78  79
1720045247,536:    221  78  79
1720045247,536:    208  78  79
1720045247,536:    169  78  79
1720045247,536:    129  78  79
1720045247,536:    116  78  79
1720045247,536:    128  78  79
1720045247,536:    136  78  79
1720045247,536:    121  78  79
1720045247,567:     91  78  79
1720045247,567:     71  78  79
1720045247,567:     73  78  79
1720045247,567:     81  78  79
1720045247,567:     76  78  79
1720045247,567:     55  78  79
1720045247,567:     30  78  79
1720045247,567:     12  78  79
1720045247,567:     -3  78  79
1720045247,567:    -20  78  79
1720045247,567:    -35  78  79
1720045247,567:    -37  78  79
1720045247,567:    -25  78  79
1720045247,567:    -13  78  79
1720045247,567:    -13  78  79
1720045247,567:    -19  78  79
1720045247,567:    -15  78  79
1720045247,567:      1  78  79
1720045247,567:     11  78  79
1720045247,567:     -3  78  79
1720045247,567:    -30  78  79
1720045247,567:    -45  78  79
1720045247,567:    -39  78  79
1720045247,598:    -26  78  79
1720045247,598:    -26  78  79
1720045247,598:    -36  78  79
1720045247,598:    -34  78  79
1720045247,598:    -11  78  79
1720045247,598:     14  78  79
1720045247,598:     19  78  79
1720045247,598:      6  78  79
1720045247,598:     -3  78  79
1720045247,598:      4  78  79
1720045247,598:     13  78  79
1720045247,598:      9  78  79
1720045247,598:     -5  78  79
1720045247,598:     -5  78  79
1720045247,598:     18  78  79
1720045247,630:     39  78  79
1720045247,630:     35  78  79
1720045247,630:     18  78  79
1720045247,631:     24  78  79
1720045247,631:     65  78  79
1720045247,631:    115  78  79
1720045247,631:    132  78  79
1720045247,660:    106  78  79
1720045247,660:     63  78  79
1720045247,660:     33  78  79
1720045247,660:     17  78  79
1720045247,660:    -16  78  79
1720045247,660:    -86  78  79
1720045247,660:   -184  78  79
1720045247,660:   -273  78  79
1720045247,660:   -304  78  79
1720045247,660:   -225  78  79
1720045247,660:     10  78  79
1720045247,660:    437  78  79
1720045247,660:   1103  78  79
1720045247,660:   2057  78  79
1720045247,660:   3277  78  79
1720045247,692:   4609  78  79
1720045247,692:   5807  78  79
1720045247,692:   6719  78  79
1720045247,692:   7396  78  79
1720045247,692:   7974  78  79
1720045247,692:   8398  78  79
1720045247,692:   8338  78  79
1720045247,692:   7466  78  79
1720045247,692:   5845  78  79
1720045247,692:   3982  78  79
1720045247,692:   2432  78  79
1720045247,692:   1359  78  79
1720045247,692:    508  78  79
1720045247,692:   -400  78  79
1720045247,692:  -1323  78  79
1720045247,692:  -1948  78  79
1720045247,692:  -2041  78  79
1720045247,692:  -1692  78  79
1720045247,692:  -1218  78  79
1720045247,692:   -888  78  79
1720045247,692:   -781  78  79
1720045247,692:   -825  78  79
1720045247,692:   -925  78  79
1720045247,740:  -1031  81  79
1720045247,740:  -1125  81  79
1720045247,740:  -1195  81  79
1720045247,740:  -1236  81  79
1720045247,740:  -1261  81  79
1720045247,740:  -1293  81  79
1720045247,740:  -1344  81  79
1720045247,740:  -1393  81  79
1720045247,740:  -1410  81  79
1720045247,740:  -1379  81  79
1720045247,740:  -1322  81  79
1720045247,740:  -1290  81  79
1720045247,740:  -1313  81  79
1720045247,740:  -1369  81  79
1720045247,740:  -1404  81  79
1720045247,740:  -1385  81  79
1720045247,740:  -1324  81  79
1720045247,740:  -1256  81  79
1720045247,740:  -1193  81  79
1720045247,740:  -1128  81  79
1720045247,740:  -1058  81  79
1720045247,740:  -1009  81  79
1720045247,771:  -1004  81  79
1720045247,771:  -1032  81  79
1720045247,771:  -1053  81  79
1720045247,771:  -1037  81  79
1720045247,771:   -990  81  79
1720045247,771:   -940  81  79
1720045247,771:   -903  81  79
1720045247,771:   -869  81  79
1720045247,771:   -830  81  79
1720045247,771:   -796  81  79
1720045247,771:   -781  81  79
1720045247,771:   -777  81  79
1720045247,771:   -762  81  79
1720045247,771:   -725  81  79
1720045247,771:   -681  81  79
1720045247,803:   -652  81  79
1720045247,803:   -640  81  79
1720045247,803:   -627  81  79
1720045247,803:   -601  81  79
1720045247,803:   -572  81  79
1720045247,803:   -558  81  79
1720045247,803:   -557  81  79
1720045247,803:   -551  81  79
1720045247,803:   -527  81  79
1720045247,803:   -493  81  79
1720045247,803:   -468  81  79
1720045247,803:   -455  81  79
1720045247,803:   -440  81  79
1720045247,803:   -409  81  79
1720045247,803:   -373  81  79
1720045247,834:   -352  81  79
1720045247,834:   -354  81  79
1720045247,834:   -357  81  79
1720045247,834:   -340  81  79
1720045247,834:   -303  81  79
1720045247,834:   -273  81  79
1720045247,834:   -273  81  79
1720045247,834:   -287  81  79
1720045247,834:   -283  81  79
1720045247,834:   -250  81  79
1720045247,834:   -207  81  79
1720045247,834:   -182  81  79
1720045247,834:   -178  81  79
1720045247,834:   -177  81  79
1720045247,834:   -167  81  79
1720045247,834:   -161  81  79
1720045247,834:   -170  81  79
1720045247,834:   -187  81  79
1720045247,834:   -191  81  79
1720045247,834:   -174  81  79
1720045247,834:   -153  81  79
1720045247,834:   -151  81  79
1720045247,834:   -166  81  79
1720045247,865:   -177  81  79
1720045247,865:   -171  81  79
1720045247,865:   -154  81  79
1720045247,865:   -151  81  79
1720045247,865:   -169  81  79
1720045247,865:   -198  81  79
1720045247,865:   -223  81  79
1720045247,865:   -239  81  79
1720045247,865:   -250  81  79
1720045247,865:   -260  81  79
1720045247,865:   -265  81  79
1720045247,865:   -265  81  79
1720045247,865:   -267  81  79
1720045247,865:   -277  81  79
1720045247,865:   -293  81  79
1720045247,896:   -300  81  79
1720045247,896:   -293  81  79
1720045247,896:   -282  81  79
1720045247,896:   -282  81  79
1720045247,896:   -294  81  79
1720045247,896:   -300  81  79
1720045247,896:   -288  81  79
1720045247,896:   -268  81  79
1720045247,896:   -260  81  79
1720045247,896:   -272  81  79
1720045247,896:   -281  81  79
1720045247,896:   -266  81  79
1720045247,896:   -230  81  79
1720045247,896:   -197  81  79
1720045247,896:   -180  81  79
1720045247,959:   -170  81  79
1720045247,959:   -151  81  79
1720045247,959:   -123  81  79
1720045247,959:   -101  81  79
1720045247,959:    -92  81  79
1720045247,959:    -87  81  79
1720045247,959:    -78  81  79
1720045247,959:    -72  81  79
1720045247,959:    -78  81  79
1720045247,959:    -91  81  79
1720045247,959:    -89  81  79
1720045247,959:    -60  81  79
1720045247,959:    -23  81  79
1720045247,959:     -6  81  79
1720045247,959:    -17  81  79
1720045247,959:    -27  81  79
1720045247,959:     -6  81  79
1720045247,959:     40  81  79
1720045247,959:     75  81  79
1720045247,959:     73  81  79
1720045247,959:     47  81  79
1720045247,959:     34  81  79
1720045247,959:     50  81  79
1720045247,959:     76  81  79
1720045247,959:     85  81  79
1720045247,959:     72  81  79
1720045247,959:     55  81  79
1720045247,959:     53  81  79
1720045247,959:     60  81  79
1720045247,959:     66  81  79
1720045247,990:     70  81  79
1720045247,990:     80  81  79
1720045247,990:     96  81  79
1720045247,990:    100  81  79
1720045247,990:     88  81  79
1720045247,990:     72  81  79
1720045247,990:     72  81  79
1720045247,990:     92  81  79
1720045247,990:    110  81  79
1720045247,990:    114  81  79
1720045247,990:    112  81  79
1720045247,990:    118  81  79
1720045247,990:    132  81  79
1720045247,990:    136  81  79
1720045247,990:    124  81  79
1720045248,021:    110  81  79
1720045248,021:    112  81  79
1720045248,021:    125  81  79
1720045248,021:    128  81  79
1720045248,021:    106  81  79
1720045248,021:     76  81  79
1720045248,021:     68  81  79
1720045248,021:     92  81  79
1720045248,021:    126  81  79
1720045248,021:    140  81  79
1720045248,021:    125  81  79
1720045248,021:    103  81  79
1720045248,021:    104  81  79
1720045248,021:    131  81  79
1720045248,021:    162  81  79
1720045248,052:    171  81  79
1720045248,052:    161  81  79
1720045248,052:    154  81  79
1720045248,052:    161  81  79
1720045248,052:    173  81  79
1720045248,052:    171  81  79
1720045248,052:    159  81  79
1720045248,052:    159  81  79
1720045248,052:    179  81  79
1720045248,052:    203  81  79
1720045248,052:    207  81  79
1720045248,052:    192  81  79
1720045248,052:    185  81  79
1720045248,052:    203  81  79
1720045248,052:    229  81  79
1720045248,084:    232  81  79
1720045248,084:    205  81  79
1720045248,084:    176  81  79
1720045248,084:    174  81  79
1720045248,084:    196  81  79
1720045248,084:    214  81  79
1720045248,084:    213  81  79
1720045248,084:    202  81  79
1720045248,084:    200  81  79
1720045248,084:    206  81  79
1720045248,084:    204  81  79
1720045248,084:    186  81  79
1720045248,084:    160  81  79
1720045248,084:    142  81  79
1720045248,084:    134  81  79
1720045248,084:    128  81  79
1720045248,084:    122  81  79
1720045248,084:    123  81  79
1720045248,084:    134  81  79
1720045248,084:    146  81  79
1720045248,084:    147  81  79
1720045248,084:    138  81  79
1720045248,116:    134  81  79
1720045248,116:    141  81  79
1720045248,116:    150  81  79
1720045248,116:    139  81  79
1720045248,116:    109  81  79
1720045248,116:     78  81  79
1720045248,116:     68  81  79
1720045248,116:     77  81  79
1720045248,116:     88  81  79
1720045248,116:     82  81  79
1720045248,116:     63  81  79
1720045248,116:     48  81  79
1720045248,116:     50  81  79
1720045248,116:     64  81  79
1720045248,116:     79  81  79
1720045248,147:     82  81  79
1720045248,147:     69  81  79
1720045248,147:     47  81  79
1720045248,147:     26  81  79
1720045248,147:     17  81  79
1720045248,147:     23  81  79
1720045248,147:     33  81  79
1720045248,147:     33  81  79
1720045248,178:     20  81  79
1720045248,178:      8  81  79
1720045248,178:     14  81  79
1720045248,178:     39  81  79
1720045248,178:     61  81  79
1720045248,178:     58  81  79
1720045248,178:     33  81  79
1720045248,178:     11  81  79
1720045248,178:     14  81  79
1720045248,178:     34  81  79
1720045248,178:     47  81  79
1720045248,178:     36  81  79
1720045248,178:     17  81  79
1720045248,178:     13  81  79
1720045248,178:     27  81  79
1720045248,178:     37  81  79
1720045248,178:     27  81  79
1720045248,178:     10  81  79
1720045248,178:      9  81  79
1720045248,178:     33  81  79
1720045248,178:     59  81  79
1720045248,178:     66  81  79
1720045248,210:     57  81  79
1720045248,210:     62  81  79
1720045248,210:     90  81  79
1720045248,210:    121  81  79
1720045248,210:    124  81  79
1720045248,210:    100  81  79
1720045248,210:     78  81  79
1720045248,210:     79  81  79
1720045248,210:     95  81  79
1720045248,210:     99  81  79
1720045248,210:     88  81  79
1720045248,210:     86  81  79
1720045248,210:    109  81  79
1720045248,210:    144  81  79
1720045248,210:    161  81  79
1720045248,241:    156  81  79
1720045248,241:    155  81  79
1720045248,241:    185  81  79
1720045248,241:    233  81  79
1720045248,241:    269  81  79
1720045248,241:    275  81  79
1720045248,241:    267  81  79
1720045248,241:    269  81  79
1720045248,241:    283  81  79
1720045248,241:    289  81  79
1720045248,241:    273  81  79
1720045248,241:    243  81  79
1720045248,241:    218  81  79
1720045248,241:    202  81  79
1720045248,241:    183  81  79
1720045248,274:    152  81  79
1720045248,274:    118  81  79
1720045248,274:     96  81  79
1720045248,274:     86  81  79
1720045248,274:     74  81  79
1720045248,274:     49  81  79
1720045248,274:     18  81  79
1720045248,274:     -2  81  79
1720045248,274:     -4  81  79
1720045248,274:      6  81  79
1720045248,274:     13  81  79
1720045248,274:     14  81  79
1720045248,274:     18  81  79
1720045248,274:     27  81  79
1720045248,274:     35  81  79
1720045248,304:     31  81  79
1720045248,304:     22  81  79
1720045248,304:     22  81  79
1720045248,304:     37  81  79
1720045248,304:     54  81  79
1720045248,304:     53  81  79
1720045248,304:     38  81  79
1720045248,304:     29  81  79
1720045248,304:     38  81  79
1720045248,304:     52  81  79
1720045248,304:     49  81  79
1720045248,304:     33  81  79
1720045248,304:     24  81  79
1720045248,304:     38  81  79
1720045248,304:     60  81  79
1720045248,304:     65  81  79
1720045248,304:     54  81  79
1720045248,304:     52  81  79
1720045248,304:     74  81  79
1720045248,304:    101  81  79
1720045248,304:    103  81  79
1720045248,304:     74  81  79
1720045248,304:     44  81  79
1720045248,335:     39  81  79
1720045248,335:     57  81  79
1720045248,335:     72  81  79
1720045248,335:     74  81  79
1720045248,335:     83  81  79
1720045248,335:    116  81  79
1720045248,335:    164  81  79
1720045248,366:    197  81  79
1720045248,366:    196  81  79
1720045248,366:    170  81  79
1720045248,366:    144  81  79
1720045248,366:    130  81  79
1720045248,366:    117  81  79
1720045248,366:     74  81  79
1720045248,366:     -5  81  79
1720045248,366:    -97  81  79
1720045248,366:   -159  81  79
1720045248,366:   -147  81  79
1720045248,366:    -26  81  79
1720045248,366:    236  81  79
1720045248,366:    691  81  79
1720045248,366:   1418  81  79
1720045248,366:   2453  81  79
1720045248,366:   3691  81  79
1720045248,366:   4897  81  79
1720045248,366:   5855  81  79
1720045248,366:   6536  81  79
1720045248,366:   7081  81  79
1720045248,429:   7561  85  80
1720045248,429:   7768  85  80
1720045248,429:   7331  85  80
1720045248,429:   6096  85  80
1720045248,429:   4366  85  80
1720045248,429:   2711  85  80
1720045248,429:   1500  85  80
1720045248,429:    659  85  80
1720045248,429:   -119  85  80
1720045248,429:   -969  85  80
1720045248,429:  -1706  85  80
1720045248,429:  -2042  85  80
1720045248,429:  -1906  85  80
1720045248,429:  -1503  85  80
1720045248,429:  -1115  85  80
1720045248,429:   -900  85  80
1720045248,429:   -859  85  80
1720045248,429:   -921  85  80
1720045248,429:  -1027  85  80
1720045248,429:  -1138  85  80
1720045248,429:  -1216  85  80
1720045248,429:  -1240  85  80
1720045248,429:  -1217  85  80
1720045248,429:  -1190  85  80
1720045248,429:  -1192  85  80
1720045248,429:  -1219  85  80
1720045248,429:  -1235  85  80
1720045248,429:  -1216  85  80
1720045248,429:  -1169  85  80
1720045248,463:  -1134  85  80
1720045248,463:  -1148  85  80
1720045248,463:  -1207  85  80
1720045248,463:  -1269  85  80
1720045248,463:  -1291  85  80
1720045248,463:  -1266  85  80
1720045248,463:  -1212  85  80
1720045248,463:  -1143  85  80
1720045248,463:  -1063  85  80
1720045248,463:   -979  85  80
1720045248,463:   -914  85  80
1720045248,463:   -892  85  80
1720045248,463:   -911  85  80
1720045248,463:   -932  85  80
1720045248,463:   -922  85  80
1720045248,493:   -878  85  80
1720045248,493:   -826  85  80
1720045248,493:   -787  85  80
1720045248,493:   -754  85  80
1720045248,493:   -707  85  80
1720045248,493:   -651  85  80
1720045248,493:   -612  85  80
1720045248,493:   -607  85  80
1720045248,493:   -620  85  80
1720045248,493:   -615  85  80
1720045248,493:   -574  85  80
1720045248,493:   -520  85  80
1720045248,493:   -481  85  80
1720045248,493:   -465  85  80
1720045248,493:   -456  85  80
1720045248,493:   -438  85  80
1720045248,493:   -418  85  80
1720045248,493:   -409  85  80
1720045248,493:   -410  85  80
1720045248,493:   -404  85  80
1720045248,493:   -382  85  80
1720045248,493:   -355  85  80
1720045248,493:   -334  85  80
1720045248,524:   -319  85  80
1720045248,524:   -294  85  80
1720045248,524:   -255  85  80
1720045248,524:   -217  85  80
1720045248,524:   -199  85  80
1720045248,524:   -200  85  80
1720045248,524:   -199  85  80
1720045248,524:   -181  85  80
1720045248,524:   -150  85  80
1720045248,524:   -127  85  80
1720045248,524:   -123  85  80
1720045248,524:   -128  85  80
1720045248,524:   -126  85  80
1720045248,524:   -116  85  80
1720045248,524:   -107  85  80
1720045248,558:   -105  85  80
1720045248,558:   -103  85  80
1720045248,558:    -91  85  80
1720045248,558:    -72  85  80
1720045248,558:    -56  85  80
1720045248,558:    -48  85  80
1720045248,558:    -40  85  80
1720045248,558:    -26  85  80
1720045248,558:    -16  85  80
1720045248,558:    -23  85  80
1720045248,558:    -48  85  80
1720045248,558:    -76  85  80
1720045248,558:    -92  85  80
1720045248,558:    -99  85  80
1720045248,558:   -110  85  80
1720045248,587:   -129  85  80
1720045248,587:   -146  85  80
1720045248,587:   -152  85  80
1720045248,587:   -154  85  80
1720045248,587:   -166  85  80
1720045248,587:   -189  85  80
1720045248,587:   -208  85  80
1720045248,587:   -212  85  80
1720045248,587:   -210  85  80
1720045248,587:   -220  85  80
1720045248,587:   -250  85  80
1720045248,587:   -280  85  80
1720045248,587:   -289  85  80
