timestamp: ADC HeartRate4sAverage HeartRate30sAverage
1720780772,571:   2639  85  83
1720780772,571:   1121  85  83
1720780772,571:   -237  85  83
1720780772,571:    342  85  83
1720780772,571:   2074  85  83
1720780772,571:   2708  85  83
1720780772,571:   1483  85  83
1720780772,602:     98  85  83
1720780772,602:    404  85  83
1720780772,602:   1907  85  83
1720780772,602:   2532  85  83
1720780772,602:   1396  85  83
1720780772,602:     25  85  83
1720780772,602:    305  85  83
1720780772,602:   1929  85  83
1720780772,602:   2848  85  83
1720780772,602:   1957  85  83
1720780772,602:    520  85  83
1720780772,602:    453  85  83
1720780772,602:   1730  85  83
1720780772,602:   2511  85  83
1720780772,602:   1636  85  83
1720780772,633:    199  85  83
1720780772,633:    111  85  83
1720780772,633:   1500  85  83
1720780772,633:   2571  85  83
1720780772,633:   1979  85  83
1720780772,633:    574  85  83
1720780772,633:    251  85  83
1720780772,633:   1369  85  83
1720780772,633:   2334  85  83
1720780772,633:   1767  85  83
1720780772,633:    364  85  83
1720780772,633:      3  85  83
1720780772,633:   1183  85  83
1720780772,633:   2369  85  83
1720780772,633:   2035  85  83
1720780772,664:    667  85  83
1720780772,664:    115  85  83
1720780772,664:   1072  85  83
1720780772,664:   2177  85  83
1720780772,664:   1867  85  83
1720780772,664:    477  85  83
1720780772,664:   -140  85  83
1720780772,664:    887  85  83
1720780772,664:   2295  85  83
1720780772,664:   2359  85  83
1720780772,664:   1130  85  83
1720780772,664:    340  85  83
1720780772,664:   1039  85  83
1720780772,664:   2199  85  83
1720780772,664:   2150  85  83
1720780772,664:    822  85  83
1720780772,664:    -80  85  83
1720780772,664:    621  85  83
1720780772,664:   1988  85  83
1720780772,664:   2232  85  83
1720780772,664:   1077  85  83
1720780772,664:    144  85  83
1720780772,664:    776  85  83
1720780772,696:   2190  85  83
1720780772,696:   2529  85  83
1720780772,696:   1294  85  83
1720780772,696:     67  85  83
1720780772,696:    410  85  83
1720780772,696:   1792  85  83
1720780772,696:   2343  85  83
1720780772,696:   1337  85  83
1720780772,696:    172  85  83
1720780772,696:    483  85  83
1720780772,696:   1893  85  83
1720780772,696:   2535  85  83
1720780772,727:   1519  85  83
1720780772,727:    165  85  83
1720780772,727:    260  85  83
1720780772,727:   1632  85  83
1720780772,727:   2414  85  83
1720780772,727:   1531  85  83
1720780772,727:    163  85  83
1720780772,727:    185  85  83
1720780772,727:   1590  85  83
1720780772,727:   2492  85  83
1720780772,727:   1617  85  83
1720780772,727:     41  85  83
1720780772,727:   -191  85  83
1720780772,727:   1170  85  83
1720780772,727:   2275  85  83
1720780772,758:   1648  85  83
1720780772,758:    177  85  83
1720780772,758:    -31  85  83
1720780772,758:   1442  85  83
1720780772,758:   2722  85  83
1720780772,758:   2096  85  83
1720780772,758:    299  85  83
1720780772,758:   -376  85  83
1720780772,758:    847  85  83
1720780772,758:   2228  85  83
1720780772,758:   1858  85  83
1720780772,758:    223  85  83
1720780772,758:   -401  85  83
1720780772,758:    948  85  83
1720780772,758:   2566  85  83
1720780772,789:   2335  85  83
1720780772,789:    510  85  83
1720780772,789:   -529  85  83
1720780772,789:    508  85  83
1720780772,789:   2125  85  83
1720780772,789:   2083  85  83
1720780772,789:    408  85  83
1720780772,789:   -580  85  83
1720780772,789:    583  85  83
1720780772,789:   2463  85  83
1720780772,789:   2617  85  83
1720780772,789:    802  85  83
1720780772,789:   -614  85  83
1720780772,789:    180  85  83
1720780772,789:   2031  85  83
1720780772,820:   2409  85  83
1720780772,820:    792  85  83
1720780772,820:   -589  85  83
1720780772,820:    240  85  83
1720780772,820:   2263  85  83
1720780772,820:   2820  85  83
1720780772,820:   1098  85  83
1720780772,820:   -694  85  83
1720780772,820:   -255  85  83
1720780772,820:   1732  85  83
1720780772,820:   2577  85  83
1720780772,820:   1169  85  83
1720780772,820:   -497  85  83
1720780772,820:     10  85  83
1720780772,820:   2198  85  83
1720780772,820:   3283  85  83
1720780772,820:   1830  85  83
1720780772,820:   -288  85  83
1720780772,820:   -348  85  83
1720780772,820:   1577  85  83
1720780772,820:   2802  85  83
1720780772,820:   1630  85  83
1720780772,852:   -349  85  83
1720780772,852:   -378  85  83
1720780772,852:   1676  85  83
1720780772,852:   3131  85  83
1720780772,852:   2036  85  83
1720780772,852:   -205  85  83
1720780772,852:   -642  85  83
1720780772,852:   1229  85  83
1720780772,852:   2854  85  83
1720780772,852:   2041  85  83
1720780772,852:    -97  85  83
1720780772,852:   -596  85  83
1720780772,852:   1299  85  83
1720780772,852:   3112  85  83
1720780772,852:   2418  85  83
1720780772,884:     67  85  83
1720780772,884:   -861  85  83
1720780772,884:    789  85  83
1720780772,884:   2760  85  83
1720780772,884:   2429  85  83
1720780772,884:    294  85  83
1720780772,884:   -670  85  83
1720780772,884:    930  85  83
1720780772,884:   3006  85  83
1720780772,884:   2789  85  83
1720780772,884:    487  85  83
1720780772,884:   -892  85  83
1720780772,884:    415  85  83
1720780772,884:   2610  85  83
1720780772,884:   2774  85  83
1720780772,913:    723  85  83
1720780772,913:   -741  85  83
1720780772,913:    369  85  83
1720780772,913:   2530  85  83
1720780772,913:   2806  85  83
1720780772,913:    726  85  83
1720780772,913:   -993  85  83
1720780772,913:    -99  85  83
1720780772,913:   2196  85  83
1720780772,913:   2882  85  83
1720780772,913:   1139  85  83
1720780772,913:   -587  85  83
1720780772,913:    111  85  83
1720780772,913:   2301  85  83
1720780772,913:   3022  85  83
1720780772,945:   1210  85  83
1720780772,945:   -809  85  83
1720780772,945:   -414  85  83
1720780772,945:   1796  85  83
1720780772,945:   2859  85  83
1720780772,945:   1380  85  83
1720780772,945:   -625  85  83
1720780772,945:   -459  85  83
1720780772,945:   1580  85  83
1720780772,945:   2666  85  83
1720780772,945:   1211  85  83
1720780772,945:   -965  85  83
1720780772,945:  -1026  85  83
1720780772,945:   1063  85  83
1720780772,945:   2554  85  83
1720780772,976:   1561  85  83
1720780772,976:   -483  85  83
1720780772,976:   -767  85  83
1720780772,976:   1088  85  83
1720780772,976:   2601  85  83
1720780772,976:   1782  85  83
1720780772,976:   -216  85  83
1720780772,976:   -631  85  83
1720780773,007:   1147  85  83
1720780773,007:   2817  85  83
1720780773,007:   2264  85  83
1720780773,007:    363  85  83
1720780773,007:   -198  85  83
1720780773,007:   1388  85  83
1720780773,007:   2981  85  83
1720780773,007:   2372  85  83
1720780773,007:    259  85  83
1720780773,007:   -582  85  83
1720780773,007:    986  85  83
1720780773,007:   2977  85  83
1720780773,007:   2916  85  83
1720780773,007:   1050  85  83
1720780773,007:    -12  85  83
1720780773,007:   1162  85  83
1720780773,007:   2956  85  83
1720780773,007:   2947  85  83
1720780773,007:   1137  85  83
1720780773,007:      1  85  83
1720780773,007:   1117  85  83
1720780773,007:   3068  85  83
1720780773,038:   3339  85  83
1720780773,038:   1604  85  83
1720780773,038:    113  85  83
1720780773,038:    610  85  83
1720780773,038:   1982  85  83
1720780773,038:   1846  85  83
1720780773,038:   -232  85  83
1720780773,038:  -2016  85  83
1720780773,038:  -1521  85  83
1720780773,038:    435  85  83
1720780773,038:   1438  85  83
1720780773,038:    724  85  83
1720780773,038:    216  85  83
1720780773,038:   1932  85  83
1720780773,038:   5229  85  83
1720780773,070:   7660  85  83
1720780773,070:   8131  85  83
1720780773,070:   8308  85  83
1720780773,070:  10288  85  83
1720780773,070:  13682  85  83
1720780773,070:  16063  85  83
1720780773,070:  16060  85  83
1720780773,070:  15045  85  83
1720780773,070:  15170  85  83
1720780773,070:  16329  85  83
1720780773,070:  16288  85  83
1720780773,070:  13649  85  83
1720780773,070:   9820  85  83
1720780773,070:   7333  85  83
1720780773,070:   6644  85  83
1720780773,102:   5805  83  83
1720780773,102:   3246  83  83
1720780773,102:    -22  83  83
1720780773,102:  -1681  83  83
1720780773,102:  -1213  83  83
1720780773,102:   -510  83  83
1720780773,102:  -1314  83  83
1720780773,102:  -2925  83  83
1720780773,102:  -3222  83  83
1720780773,102:  -1745  83  83
1720780773,102:   -432  83  83
1720780773,102:  -1110  83  83
1720780773,102:  -3049  83  83
1720780773,102:  -3875  83  83
1720780773,102:  -2764  83  83
1720780773,102:  -1515  83  83
1720780773,102:  -2106  83  83
1720780773,102:  -4025  83  83
1720780773,102:  -4847  83  83
1720780773,102:  -3516  83  83
1720780773,102:  -1756  83  83
1720780773,102:  -1783  83  83
1720780773,102:  -3401  83  83
1720780773,133:  -4285  83  83
1720780773,133:  -3188  83  83
1720780773,133:  -1662  83  83
1720780773,133:  -1949  83  83
1720780773,133:  -3952  83  83
1720780773,133:  -5208  83  83
1720780773,133:  -4159  83  83
1720780773,133:  -2217  83  83
1720780773,133:  -1882  83  83
1720780773,133:  -3472  83  83
1720780773,133:  -4710  83  83
1720780773,133:  -3819  83  83
1720780773,133:  -1950  83  83
1720780773,133:  -1589  83  83
1720780773,133:  -3254  83  83
1720780773,165:  -4701  83  83
1720780773,165:  -3927  83  83
1720780773,165:  -1860  83  83
1720780773,165:  -1088  83  83
1720780773,165:  -2437  83  83
1720780773,165:  -3859  83  83
1720780773,165:  -3197  83  83
1720780773,165:  -1149  83  83
1720780773,165:   -304  83  83
1720780773,165:  -1722  83  83
1720780773,165:  -3456  83  83
1720780773,165:  -3135  83  83
1720780773,165:  -1157  83  83
1720780773,165:   -100  83  83
1720780773,165:  -1284  83  83
1720780773,196:  -2993  83  83
1720780773,196:  -2759  83  83
1720780773,196:   -752  83  83
1720780773,196:    470  83  83
1720780773,196:   -663  83  83
1720780773,196:  -2601  83  83
1720780773,196:  -2686  83  83
1720780773,196:   -736  83  83
1720780773,196:    766  83  83
1720780773,196:    -35  83  83
1720780773,196:  -1908  83  83
1720780773,196:  -2176  83  83
1720780773,196:   -381  83  83
1720780773,196:   1127  83  83
1720780773,196:    317  83  83
1720780773,228:  -1797  83  83
1720780773,228:  -2432  83  83
1720780773,228:   -787  83  83
1720780773,228:    945  83  83
1720780773,228:    523  83  83
1720780773,228:  -1371  83  83
1720780773,228:  -2025  83  83
1720780773,228:   -414  83  83
1720780773,228:   1411  83  83
1720780773,228:   1063  83  83
1720780773,228:  -1008  83  83
1720780773,228:  -2030  83  83
1720780773,228:   -646  83  83
1720780773,228:   1311  83  83
1720780773,228:   1299  83  83
1720780773,259:   -556  83  83
1720780773,259:  -1616  83  83
1720780773,259:   -337  83  83
1720780773,259:   1618  83  83
1720780773,259:   1625  83  83
1720780773,259:   -413  83  83
1720780773,259:  -1829  83  83
1720780773,259:   -778  83  83
1720780773,259:   1304  83  83
1720780773,259:   1655  83  83
1720780773,259:   -139  83  83
1720780773,259:  -1561  83  83
1720780773,259:   -569  83  83
1720780773,259:   1589  83  83
1720780773,259:   2061  83  83
1720780773,291:    155  83  83
1720780773,291:  -1640  83  83
1720780773,291:   -962  83  83
1720780773,291:   1261  83  83
1720780773,291:   2106  83  83
1720780773,291:    533  83  83
1720780773,291:  -1213  83  83
1720780773,291:   -626  83  83
1720780773,291:   1605  83  83
1720780773,291:   2534  83  83
1720780773,291:    846  83  83
1720780773,291:  -1315  83  83
1720780773,291:  -1160  83  83
1720780773,291:   1007  83  83
1720780773,291:   2268  83  83
1720780773,291:    973  83  83
1720780773,291:  -1052  83  83
1720780773,291:   -947  83  83
1720780773,291:   1263  83  83
1720780773,291:   2730  83  83
1720780773,291:   1547  83  83
1720780773,291:   -691  83  83
1720780773,322:   -974  83  83
1720780773,322:   1056  83  83
1720780773,322:   2694  83  83
1720780773,322:   1793  83  83
1720780773,322:   -369  83  83
1720780773,322:   -778  83  83
1720780773,322:   1186  83  83
1720780773,322:   2933  83  83
1720780773,322:   2116  83  83
1720780773,322:   -233  83  83
1720780773,322:   -996  83  83
1720780773,322:    814  83  83
1720780773,322:   2786  83  83
1720780773,322:   2346  83  83
1720780773,322:    170  83  83
1720780773,352:   -693  83  83
1720780773,352:   1006  83  83
1720780773,352:   3033  83  83
1720780773,352:   2669  83  83
1720780773,352:    326  83  83
1720780773,352:   -901  83  83
1720780773,352:    587  83  83
1720780773,352:   2788  83  83
1720780773,352:   2800  83  83
1720780773,352:    667  83  83
1720780773,352:   -664  83  83
1720780773,352:    651  83  83
1720780773,352:   2837  83  83
1720780773,352:   2910  83  83
1720780773,352:    623  83  83
1720780773,384:  -1097  83  83
1720780773,384:    -75  83  83
1720780773,384:   2225  83  83
1720780773,384:   2714  83  83
1720780773,384:    763  83  83
1720780773,384:   -945  83  83
1720780773,384:    -46  83  83
1720780773,384:   2279  83  83
1720780773,416:   2929  83  83
1720780773,416:    974  83  83
1720780773,416:  -1030  83  83
1720780773,416:   -456  83  83
1720780773,416:   1884  83  83
1720780773,416:   2894  83  83
1720780773,416:   1294  83  83
1720780773,416:   -691  83  83
1720780773,416:   -342  83  83
1720780773,416:   1830  83  83
1720780773,416:   2848  83  83
1720780773,416:   1223  83  83
1720780773,416:   -984  83  83
1720780773,416:   -893  83  83
1720780773,416:   1312  83  83
1720780773,416:   2696  83  83
1720780773,416:   1472  83  83
1720780773,416:   -623  83  83
1720780773,416:   -664  83  83
1720780773,416:   1456  83  83
1720780773,416:   2918  83  83
1720780773,416:   1723  83  83
1720780773,448:   -605  83  83
1720780773,448:   -995  83  83
1720780773,448:   1035  83  83
1720780773,448:   2799  83  83
1720780773,448:   2022  83  83
1720780773,448:   -164  83  83
1720780773,448:   -746  83  83
1720780773,448:   1046  83  83
1720780773,448:   2744  83  83
1720780773,448:   1969  83  83
1720780773,448:   -375  83  83
1720780773,448:  -1222  83  83
1720780773,448:    509  83  83
1720780773,448:   2516  83  83
1720780773,448:   2196  83  83
1720780773,480:     82  83  83
1720780773,480:   -879  83  83
1720780773,480:    652  83  83
1720780773,480:   2611  83  83
1720780773,480:   2330  83  83
1720780773,480:     82  83  83
1720780773,480:  -1194  83  83
1720780773,480:    137  83  83
1720780773,480:   2261  83  83
1720780773,480:   2378  83  83
1720780773,480:    394  83  83
1720780773,480:   -956  83  83
1720780773,480:    163  83  83
1720780773,480:   2217  83  83
1720780773,480:   2422  83  83
1720780773,511:    443  83  83
1720780773,511:  -1080  83  83
1720780773,511:    -94  83  83
1720780773,511:   2123  83  83
1720780773,511:   2712  83  83
1720780773,511:   1000  83  83
1720780773,511:   -624  83  83
1720780773,511:     48  83  83
1720780773,511:   2045  83  83
1720780773,511:   2603  83  83
1720780773,511:    845  83  83
1720780773,511:   -970  83  83
1720780773,511:   -466  83  83
1720780773,511:   1655  83  83
1720780773,511:   2607  83  83
1720780773,511:   1194  83  83
1720780773,511:   -619  83  83
1720780773,511:   -366  83  83
1720780773,511:   1561  83  83
1720780773,511:   2513  83  83
1720780773,511:   1118  83  83
1720780773,511:   -830  83  83
1720780773,511:   -743  83  83
1720780773,542:   1263  83  83
1720780773,542:   2578  83  83
1720780773,542:   1553  83  83
1720780773,542:   -337  83  83
1720780773,542:   -484  83  83
1720780773,542:   1287  83  83
1720780773,542:   2535  83  83
1720780773,542:   1485  83  83
1720780773,542:   -566  83  83
1720780773,542:   -913  83  83
1720780773,542:    902  83  83
1720780773,542:   2521  83  83
1720780773,542:   1905  83  83
1720780773,542:      7  83  83
1720780773,542:   -515  83  83
1720780773,574:   1064  83  83
1720780773,574:   2593  83  83
1720780773,574:   1951  83  83
1720780773,574:   -112  83  83
1720780773,574:   -892  83  83
1720780773,574:    608  83  83
1720780773,574:   2379  83  83
1720780773,605:   2098  83  83
1720780773,605:    185  83  83
1720780773,605:   -756  83  83
1720780773,605:    515  83  83
1720780773,605:   2224  83  83
1720780773,605:   1998  83  83
1720780773,605:     27  83  83
1720780773,605:  -1111  83  83
1720780773,605:     71  83  83
1720780773,605:   2003  83  83
1720780773,605:   2179  83  83
1720780773,605:    457  83  83
1720780773,605:   -767  83  83
1720780773,605:    174  83  83
1720780773,605:   1959  83  83
1720780773,605:   2110  83  83
1720780773,605:    299  83  83
1720780773,605:  -1129  83  83
1720780773,605:   -302  83  83
1720780773,605:   1668  83  83
1720780773,605:   2205  83  83
1720780773,605:    672  83  83
1720780773,605:   -793  83  83
1720780773,636:   -172  83  83
1720780773,636:   1677  83  83
1720780773,636:   2230  83  83
1720780773,636:    652  83  83
1720780773,636:  -1014  83  83
1720780773,636:   -568  83  83
1720780773,636:   1388  83  83
1720780773,636:   2304  83  83
1720780773,636:   1046  83  83
1720780773,636:   -615  83  83
1720780773,636:   -402  83  83
1720780773,636:   1350  83  83
1720780773,636:   2217  83  83
1720780773,636:    929  83  83
1720780773,636:   -870  83  83
1720780773,667:   -789  83  83
1720780773,667:   1077  83  83
1720780773,667:   2305  83  83
1720780773,667:   1348  83  83
1720780773,667:   -434  83  83
1720780773,667:   -605  83  83
1720780773,667:   1014  83  83
1720780773,667:   2156  83  83
1720780773,667:   1151  83  83
1720780773,667:   -811  83  83
1720780773,667:  -1202  83  83
1720780773,667:    432  83  83
1720780773,667:   1919  83  83
1720780773,667:   1353  83  83
1720780773,667:   -405  83  83
1720780773,699:   -898  83  83
1720780773,699:    558  83  83
1720780773,699:   1971  83  83
1720780773,699:   1367  83  83
1720780773,699:   -567  83  83
1720780773,699:  -1318  83  83
1720780773,699:     63  83  83
1720780773,699:   1737  83  83
1720780773,699:   1546  83  83
1720780773,699:   -148  83  83
1720780773,699:   -968  83  83
1720780773,699:    227  83  83
1720780773,731:   1810  83  83
1720780773,731:   1607  83  83
1720780773,731:   -203  83  83
1720780773,731:  -1259  83  83
1720780773,731:   -199  83  83
1720780773,731:   1525  83  83
1720780773,731:   1621  83  83
1720780773,731:    -15  83  83
1720780773,731:  -1157  83  83
1720780773,731:   -261  83  83
1720780773,731:   1453  83  83
1720780773,731:   1690  83  83
1720780773,731:    113  83  83
1720780773,731:  -1162  83  83
1720780773,731:   -449  83  83
1720780773,761:   1222  83  83
1720780773,761:   1492  83  83
1720780773,761:   -231  83  83
1720780773,761:  -2000  83  83
1720780773,761:  -1921  83  83
1720780773,761:   -658  83  83
1720780773,761:   -370  83  83
1720780773,761:  -1741  83  83
1720780773,761:  -2936  83  83
1720780773,761:  -1978  83  83
1720780773,761:    654  83  83
1720780773,761:   2770  83  83
1720780773,761:   3361  83  83
1720780773,761:   3848  83  83
1720780773,761:   6019  83  83
1720780773,761:   9435  83  83
1720780773,761:  11971  83  83
1720780773,761:  12565  83  83
1720780773,761:  12571  83  83
1720780773,761:  13850  83  83
1720780773,761:  16101  83  83
1720780773,761:  17180  83  83
1720780773,761:  15844  83  83
1720780773,791:  13325  85  84
1720780773,791:  11657  85  84
1720780773,791:  10936  85  84
1720780773,791:   9367  85  84
1720780773,791:   5899  85  84
1720780773,791:   1921  85  84
1720780773,791:   -270  85  84
1720780773,791:   -394  85  84
1720780773,791:   -432  85  84
1720780773,791:  -1971  85  84
1720780773,791:  -4098  85  84
1720780773,791:  -4603  85  84
1720780773,791:  -3025  85  84
1720780773,791:  -1385  85  84
1720780773,791:  -1675  85  84
1720780773,823:  -3419  85  84
1720780773,823:  -4351  85  84
1720780773,823:  -3468  85  84
1720780773,823:  -2265  85  84
1720780773,823:  -2649  85  84
1720780773,823:  -4385  85  84
1720780773,823:  -5381  85  84
1720780773,823:  -4505  85  84
1720780773,823:  -3071  85  84
1720780773,823:  -3029  85  84
1720780773,823:  -4382  85  84
1720780773,823:  -5148  85  84
1720780773,823:  -4089  85  84
1720780773,823:  -2407  85  84
1720780773,823:  -2167  85  84
1720780773,854:  -3595  85  84
1720780773,854:  -4750  85  84
1720780773,854:  -4110  85  84
1720780773,854:  -2581  85  84
1720780773,854:  -2208  85  84
1720780773,854:  -3470  85  84
1720780773,854:  -4602  85  84
1720780773,854:  -4001  85  84
1720780773,854:  -2397  85  84
1720780773,854:  -1853  85  84
1720780773,854:  -3029  85  84
1720780773,854:  -4280  85  84
1720780773,854:  -3852  85  84
1720780773,854:  -2259  85  84
1720780773,854:  -1550  85  84
1720780773,885:  -2595  85  84
1720780773,885:  -3895  85  84
1720780773,885:  -3594  85  84
1720780773,885:  -2016  85  84
1720780773,885:  -1204  85  84
1720780773,885:  -2205  85  84
1720780773,885:  -3646  85  84
1720780773,885:  -3542  85  84
1720780773,885:  -1999  85  84
1720780773,885:  -1053  85  84
1720780773,885:  -1981  85  84
1720780773,885:  -3575  85  84
1720780773,885:  -3720  85  84
1720780773,885:  -2240  85  84
1720780773,885:  -1085  85  84
1720780773,917:  -1736  85  84
1720780773,917:  -3241  85  84
1720780773,917:  -3494  85  84
1720780773,917:  -2141  85  84
1720780773,917:  -1044  85  84
1720780773,917:  -1776  85  84
1720780773,917:  -3491  85  84
1720780773,917:  -3971  85  84
1720780773,917:  -2646  85  84
1720780773,917:  -1333  85  84
1720780773,917:  -1818  85  84
1720780773,917:  -3460  85  84
1720780773,917:  -4011  85  84
1720780773,917:  -2693  85  84
1720780773,917:  -1283  85  84
1720780773,948:  -1777  85  84
1720780773,948:  -3751  85  84
1720780773,948:  -4838  85  84
1720780773,948:  -3893  85  84
1720780773,948:  -2472  85  84
1720780773,948:  -2716  85  84
1720780773,948:  -4491  85  84
1720780773,948:  -5519  85  84
1720780773,948:  -4462  85  84
1720780773,948:  -2742  85  84
1720780773,948:  -2638  85  84
1720780773,948:  -4285  85  84
1720780773,948:  -5421  85  84
1720780773,948:  -4447  85  84
1720780773,948:  -2569  85  84
1720780773,948:  -2164  85  84
1720780773,948:  -3617  85  84
1720780773,948:  -4760  85  84
1720780773,948:  -3801  85  84
1720780773,948:  -1800  85  84
1720780773,948:  -1263  85  84
1720780773,948:  -2847  85  84
1720780773,980:  -4388  85  84
1720780773,980:  -3777  85  84
1720780773,980:  -1778  85  84
1720780773,980:   -965  85  84
1720780773,980:  -2290  85  84
1720780773,980:  -3765  85  84
1720780773,980:  -3117  85  84
1720780773,980:   -933  85  84
1720780773,980:    100  85  84
1720780773,980:  -1294  85  84
1720780773,980:  -3214  85  84
1720780773,980:  -3075  85  84
1720780773,980:  -1073  85  84
1720780773,980:    145  85  84
1720780773,980:   -981  85  84
1720780774,011:  -2792  85  84
1720780774,011:  -2619  85  84
1720780774,011:   -460  85  84
1720780774,011:    971  85  84
1720780774,011:   -209  85  84
1720780774,011:  -2524  85  84
1720780774,011:  -3024  85  84
1720780774,011:  -1257  85  84
1720780774,011:    239  85  84
1720780774,011:   -632  85  84
1720780774,011:  -2700  85  84
1720780774,011:  -3088  85  84
1720780774,011:  -1180  85  84
1720780774,011:    542  85  84
1720780774,011:   -180  85  84
1720780774,043:  -2355  85  84
1720780774,043:  -3026  85  84
1720780774,043:  -1316  85  84
1720780774,043:    439  85  84
1720780774,043:   -118  85  84
1720780774,043:  -2190  85  84
1720780774,043:  -2898  85  84
1720780774,043:  -1326  85  84
1720780774,043:    139  85  84
1720780774,043:  -1008  85  84
1720780774,043:  -3992  85  84
1720780774,043:  -5579  85  84
1720780774,043:  -4359  85  84
1720780774,043:  -2570  85  84
1720780774,043:  -3087  85  84
1720780774,074:  -5615  85  84
1720780774,074:  -7022  85  84
1720780774,074:  -5523  85  84
1720780774,074:  -3069  85  84
1720780774,074:  -2755  85  84
1720780774,074:  -4839  85  84
1720780774,074:  -6401  85  84
1720780774,074:  -5298  85  84
1720780774,074:  -2973  85  84
1720780774,074:  -2432  85  84
1720780774,074:  -4262  85  84
1720780774,074:  -5877  85  84
1720780774,074:  -5062  85  84
1720780774,074:  -3030  85  84
1720780774,074:  -2727  85  84
1720780774,104:  -4904  85  84
1720780774,104:  -6979  85  84
1720780774,104:  -6431  85  84
1720780774,104:  -4161  85  84
1720780774,104:  -3244  85  84
1720780774,104:  -4876  85  84
1720780774,104:  -6799  85  84
1720780774,104:  -6328  85  84
1720780774,104:  -4000  85  84
1720780774,104:  -2776  85  84
1720780774,104:  -4122  85  84
1720780774,104:  -6021  85  84
1720780774,104:  -5669  85  84
1720780774,104:  -3276  85  84
1720780774,104:  -1733  85  84
1720780774,135:  -2786  85  84
1720780774,135:  -4731  85  84
1720780774,135:  -4698  85  84
1720780774,135:  -2561  85  84
1720780774,135:  -1033  85  84
1720780774,135:  -2037  85  84
1720780774,135:  -4112  85  84
1720780774,135:  -4323  85  84
1720780774,135:  -2249  85  84
1720780774,135:   -497  85  84
1720780774,135:  -1230  85  84
1720780774,135:  -3304  85  84
1720780774,135:  -3791  85  84
1720780774,135:  -1979  85  84
1720780774,135:   -286  85  84
1720780774,166:  -1006  85  84
1720780774,166:  -3222  85  84
1720780774,166:  -3942  85  84
1720780774,166:  -2131  85  84
1720780774,166:    -55  85  84
1720780774,166:   -264  85  84
1720780774,166:  -2253  85  84
1720780774,166:  -3156  85  84
1720780774,166:  -1646  85  84
1720780774,166:    317  85  84
1720780774,166:    168  85  84
1720780774,166:  -1855  85  84
1720780774,166:  -2948  85  84
1720780774,166:  -1550  85  84
1720780774,166:    591  85  84
1720780774,196:    783  85  84
1720780774,196:  -1060  85  84
1720780774,196:  -2298  85  84
1720780774,196:  -1155  85  84
1720780774,196:    881  85  84
1720780774,196:   1107  85  84
1720780774,196:   -806  85  84
1720780774,196:  -2280  85  84
1720780774,196:  -1293  85  84
1720780774,196:    928  85  84
1720780774,196:   1581  85  84
1720780774,196:    -15  85  84
1720780774,196:  -1523  85  84
1720780774,196:   -751  85  84
1720780774,196:   1364  85  84
1720780774,227:   2086  85  84
1720780774,227:    517  85  84
1720780774,227:  -1105  85  84
1720780774,227:   -380  85  84
1720780774,227:   2025  85  84
1720780774,227:   3299  85  84
1720780774,227:   2175  85  84
1720780774,227:    594  85  84
1720780774,227:   1093  85  84
1720780774,227:   3341  85  84
1720780774,227:   4631  85  84
1720780774,227:   3451  85  84
1720780774,227:   1533  85  84
1720780774,227:   1565  85  84
1720780774,227:   3578  85  84
1720780774,227:   4985  85  84
1720780774,227:   4033  85  84
1720780774,227:   2134  85  84
1720780774,227:   1969  85  84
1720780774,227:   3802  85  84
1720780774,227:   5159  85  84
1720780774,227:   4125  85  84
1720780774,227:   1942  85  84
1720780774,258:   1426  85  84
1720780774,258:   3161  85  84
1720780774,258:   4763  85  84
1720780774,258:   4053  85  84
1720780774,258:   1954  85  84
1720780774,258:   1284  85  84
1720780774,258:   2914  85  84
1720780774,290:   4615  85  84
1720780774,290:   4036  85  84
1720780774,290:   1837  85  84
1720780774,290:    882  85  84
1720780774,290:   2357  85  84
1720780774,290:   4225  85  84
1720780774,290:   3966  85  84
1720780774,290:   1923  85  84
1720780774,290:    868  85  84
1720780774,290:   2223  85  84
1720780774,290:   4133  85  84
1720780774,290:   3970  85  84
1720780774,290:   1815  85  84
1720780774,290:    443  85  84
1720780774,290:   1579  85  84
1720780774,322:   3626  85  84
1720780774,322:   3834  85  84
1720780774,322:   1941  85  84
1720780774,322:    530  85  84
1720780774,322:   1504  85  84
1720780774,322:   3501  85  84
1720780774,322:   3755  85  84
1720780774,322:   1771  85  84
1720780774,322:     75  85  84
1720780774,322:    826  85  84
1720780774,322:   2934  85  84
1720780774,322:   3562  85  84
1720780774,322:   1874  85  84
1720780774,322:    149  85  84
1720780774,322:    702  85  84
1720780774,322:   2732  85  84
1720780774,322:   3452  85  84
1720780774,322:   1776  85  84
1720780774,322:   -174  85  84
1720780774,322:    105  85  84
1720780774,322:   2145  85  84
1720780774,322:   3199  85  84
1720780774,322:   1891  85  84
1720780774,354:     33  85  84
1720780774,354:    169  85  84
1720780774,354:   2089  85  84
1720780774,354:   3159  85  84
1720780774,354:   1831  85  84
1720780774,354:   -231  85  84
1720780774,354:   -332  85  84
1720780774,354:   1616  85  84
1720780774,354:   3026  85  84
1720780774,354:   2062  85  84
1720780774,354:     74  85  84
1720780774,354:   -216  85  84
1720780774,354:   1564  85  84
1720780774,354:   2975  85  84
1720780774,354:   2031  85  84
1720780774,384:   -117  85  84
1720780774,384:   -647  85  84
1720780774,384:   1111  85  84
1720780774,384:   2819  85  84
1720780774,384:   2249  85  84
1720780774,384:    237  85  84
1720780774,384:   -421  85  84
1720780774,415:   1200  85  84
1720780774,415:   2912  85  84
1720780774,415:   2347  85  84
1720780774,415:    126  85  84
1720780774,415:   -866  85  84
1720780774,415:    620  85  84
1720780774,415:   2567  85  84
1720780774,415:   2400  85  84
1720780774,415:    408  85  84
1720780774,415:   -628  85  84
1720780774,415:    763  85  84
1720780774,415:   2725  85  84
1720780774,415:   2570  85  84
1720780774,415:    349  85  84
1720780774,415:  -1105  85  84
1720780774,415:     20  85  84
1720780774,415:   2116  85  84
1720780774,415:   2342  85  84
1720780774,415:    397  85  84
1720780774,415:  -1060  85  84
1720780774,415:    -14  85  84
1720780774,415:   2153  85  84
1720780774,415:   2540  85  84
1720780774,447:    554  85  84
1720780774,447:  -1220  85  84
1720780774,447:   -480  85  84
1720780774,447:   1728  85  84
1720780774,447:   2468  85  84
1720780774,447:    807  85  84
1720780774,447:   -950  85  84
1720780774,447:   -388  85  84
1720780774,447:   1724  85  84
1720780774,447:   2525  85  84
1720780774,447:    857  85  84
1720780774,447:  -1127  85  84
1720780774,447:   -833  85  84
1720780774,447:   1284  85  84
1720780774,447:   2398  85  84
1720780774,447:   1066  85  84
1720780774,447:   -853  85  84
1720780774,447:   -712  85  84
1720780774,447:   1311  85  84
1720780774,447:   2507  85  84
1720780774,447:   1240  85  84
1720780774,447:   -841  85  84
1720780774,477:   -995  85  84
1720780774,477:    875  85  84
1720780774,477:   2133  85  84
1720780774,477:    906  85  84
1720780774,477:  -1438  85  84
1720780774,477:  -2103  85  84
1720780774,477:   -645  85  84
1720780774,477:    550  85  84
1720780774,508:   -453  85  84
1720780774,508:  -2445  85  84
1720780774,508:  -2538  85  84
1720780774,508:     -8  85  84
1720780774,508:   2845  85  84
1720780774,508:   3780  85  84
1720780774,508:   3534  85  84
1720780774,508:   4724  85  84
1720780774,508:   8129  85  84
1720780774,508:  11526  85  84
1720780774,508:  12586  85  84
1720780774,508:  11880  85  84
1720780774,508:  12092  85  84
1720780774,508:  14259  85  84
1720780774,508:  16296  85  84
1720780774,540:  15719  82  84
1720780774,540:  12878  82  84
1720780774,540:  10478  82  84
1720780774,540:   9921  82  84
1720780774,540:   9501  82  84
1720780774,540:   6917  82  84
1720780774,540:   2587  82  84
1720780774,540:   -552  82  84
1720780774,540:   -806  82  84
1720780774,540:    112  82  84
1720780774,540:   -578  82  84
1720780774,540:  -3037  82  84
1720780774,540:  -4564  82  84
1720780774,540:  -3272  82  84
1720780774,540:   -770  82  84
1720780774,571:   -157  82  84
1720780774,571:  -2127  82  84
1720780774,571:  -4082  82  84
1720780774,571:  -3607  82  84
1720780774,571:  -1628  82  84
1720780774,571:  -1038  82  84
1720780774,571:  -2813  82  84
1720780774,571:  -4683  82  84
1720780774,571:  -4183  82  84
1720780774,571:  -2020  82  84
1720780774,571:  -1074  82  84
1720780774,571:  -2589  82  84
1720780774,571:  -4462  82  84
1720780774,571:  -4064  82  84
1720780774,571:  -1817  82  84
1720780774,571:   -609  82  84
1720780774,571:  -1975  82  84
1720780774,571:  -4021  82  84
1720780774,571:  -3923  82  84
1720780774,571:  -1758  82  84
1720780774,571:   -341  82  84
1720780774,571:  -1491  82  84
1720780774,601:  -3581  82  84
1720780774,601:  -3688  82  84
1720780774,601:  -1564  82  84
1720780774,601:     70  82  84
1720780774,601:   -860  82  84
1720780774,601:  -3010  82  84
1720780774,601:  -3388  82  84
1720780774,601:  -1412  82  84
1720780774,601:    353  82  84
1720780774,601:   -391  82  84
1720780774,601:  -2617  82  84
1720780774,601:  -3300  82  84
1720780774,601:  -1510  82  84
1720780774,601:    403  82  84
1720780774,601:    -31  82  84
1720780774,633:  -2131  82  84
1720780774,633:  -2964  82  84
1720780774,633:  -1340  82  84
1720780774,633:    614  82  84
1720780774,633:    323  82  84
1720780774,633:  -1820  82  84
1720780774,633:  -2915  82  84
1720780774,633:  -1482  82  84
1720780774,665:    605  82  84
1720780774,665:    657  82  84
1720780774,665:  -1279  82  84
1720780774,665:  -2492  82  84
1720780774,665:  -1298  82  84
1720780774,665:    694  82  84
1720780774,665:    799  82  84
1720780774,665:  -1179  82  84
1720780774,665:  -2602  82  84
1720780774,665:  -1554  82  84
1720780774,665:    618  82  84
1720780774,665:   1133  82  84
1720780774,665:   -562  82  84
1720780774,665:  -2078  82  84
1720780774,665:  -1324  82  84
1720780774,665:    665  82  84
1720780774,665:   1195  82  84
1720780774,665:   -507  82  84
1720780774,665:  -2187  82  84
1720780774,665:  -1583  82  84
1720780774,665:    536  82  84
1720780774,665:   1447  82  84
1720780774,696:     53  82  84
1720780774,696:  -1672  82  84
1720780774,696:  -1356  82  84
1720780774,696:    548  82  84
1720780774,696:   1440  82  84
1720780774,696:     40  82  84
1720780774,696:  -1844  82  84
1720780774,696:  -1708  82  84
1720780774,696:    275  82  84
1720780774,696:   1539  82  84
1720780774,696:    512  82  84
1720780774,696:  -1314  82  84
1720780774,727:  -1399  82  84
1720780774,727:    371  82  84
1720780774,727:   1591  82  84
1720780774,727:    553  82  84
1720780774,727:  -1428  82  84
1720780774,727:  -1723  82  84
1720780774,727:     56  82  84
1720780774,727:   1582  82  84
1720780774,727:    902  82  84
1720780774,727:   -983  82  84
1720780774,727:  -1451  82  84
1720780774,727:    152  82  84
1720780774,727:   1669  82  84
1720780774,727:   1020  82  84
1720780774,727:  -1005  82  84
1720780774,727:  -1724  82  84
1720780774,727:   -199  82  84
1720780774,727:   1548  82  84
1720780774,727:   1235  82  84
1720780774,727:   -653  82  84
1720780774,727:  -1492  82  84
1720780774,727:    -96  82  84
1720780774,727:   1678  82  84
1720780774,758:   1425  82  84
1720780774,758:   -610  82  84
1720780774,758:  -1753  82  84
1720780774,758:   -509  82  84
1720780774,758:   1466  82  84
1720780774,758:   1594  82  84
1720780774,758:   -208  82  84
1720780774,758:  -1397  82  84
1720780774,758:   -260  82  84
1720780774,758:   1737  82  84
1720780774,758:   1923  82  84
1720780774,758:    -45  82  84
1720780774,758:  -1619  82  84
1720780774,758:   -783  82  84
1720780774,758:   1266  82  84
1720780774,790:   1756  82  84
1720780774,790:     27  82  84
1720780774,790:  -1550  82  84
1720780774,790:   -777  82  84
1720780774,790:   1344  82  84
1720780774,790:   1957  82  84
1720780774,790:    109  82  84
1720780774,790:  -1893  82  84
1720780774,790:  -1550  82  84
1720780774,790:    494  82  84
1720780774,790:   1379  82  84
1720780774,790:   -155  82  84
1720780774,790:  -2053  82  84
1720780774,790:  -1708  82  84
1720780774,790:    449  82  84
1720780774,822:   1544  82  84
1720780774,822:     47  82  84
1720780774,822:  -2124  82  84
1720780774,822:  -2130  82  84
1720780774,822:    -39  82  84
1720780774,822:   1336  82  84
1720780774,822:    195  82  84
1720780774,822:  -1831  82  84
1720780774,822:  -1861  82  84
1720780774,822:    264  82  84
1720780774,822:   1769  82  84
1720780774,822:    612  82  84
1720780774,822:  -1758  82  84
1720780774,822:  -2266  82  84
1720780774,822:   -357  82  84
1720780774,852:   1342  82  84
1720780774,852:    548  82  84
1720780774,852:  -1630  82  84
1720780774,852:  -2162  82  84
1720780774,852:   -264  82  84
1720780774,852:   1541  82  84
1720780774,852:    786  82  84
1720780774,852:  -1638  82  84
1720780774,852:  -2571  82  84
1720780774,852:   -846  82  84
1720780774,852:   1205  82  84
1720780774,852:    884  82  84
1720780774,852:  -1284  82  84
1720780774,852:  -2232  82  84
1720780774,852:   -536  82  84
1720780774,884:   1640  82  84
1720780774,884:   1435  82  84
1720780774,884:   -928  82  84
1720780774,884:  -2337  82  84
1720780774,884:   -976  82  84
1720780774,884:   1301  82  84
1720780774,884:   1490  82  84
1720780774,884:   -587  82  84
1720780774,884:  -2035  82  84
1720780774,884:   -830  82  84
1720780774,884:   1428  82  84
1720780774,884:   1700  82  84
1720780774,884:   -469  82  84
1720780774,884:  -2240  82  84
1720780774,884:  -1301  82  84
1720780774,884:   1063  82  84
1720780774,884:   1739  82  84
1720780774,884:    -94  82  84
1720780774,884:  -1871  82  84
1720780774,884:  -1126  82  84
1720780774,884:   1135  82  84
1720780774,884:   1841  82  84
1720780774,915:    -64  82  84
1720780774,915:  -2125  82  84
1720780774,915:  -1643  82  84
1720780774,915:    705  82  84
1720780774,915:   1813  82  84
1720780774,915:    273  82  84
1720780774,915:  -1755  82  84
1720780774,915:  -1460  82  84
1720780774,947:    765  82  84
1720780774,947:   1897  82  84
1720780774,947:    308  82  84
1720780774,947:  -1989  82  84
1720780774,947:  -1995  82  84
1720780774,947:    227  82  84
1720780774,947:   1698  82  84
1720780774,947:    503  82  84
1720780774,947:  -1645  82  84
1720780774,947:  -1719  82  84
1720780774,947:    408  82  84
1720780774,947:   1759  82  84
1720780774,947:    182  82  84
1720780774,947:  -2726  82  84
1720780774,947:  -3620  82  84
1720780774,978:  -1857  82  84
1720780774,978:   -260  82  84
1720780774,978:  -1353  82  84
1720780774,978:  -4034  82  84
1720780774,978:  -5045  82  84
1720780774,978:  -3363  82  84
1720780774,978:  -1480  82  84
1720780774,978:  -2014  82  84
1720780774,978:  -4248  82  84
1720780774,978:  -5090  82  84
1720780774,978:  -3327  82  84
1720780774,978:  -1232  82  84
1720780774,978:  -1495  82  84
1720780774,978:  -3663  82  84
1720780774,978:  -4738  82  84
1720780774,978:  -3270  82  84
1720780774,978:  -1293  82  84
1720780774,978:  -1561  82  84
1720780774,978:  -3855  82  84
1720780774,978:  -5177  82  84
1720780774,978:  -3760  82  84
1720780774,978:  -1388  82  84
1720780775,010:   -994  82  84
1720780775,010:  -2830  82  84
1720780775,010:  -4177  82  84
1720780775,010:  -3070  82  84
1720780775,010:   -960  82  84
1720780775,010:   -702  82  84
1720780775,010:  -2741  82  84
1720780775,010:  -4411  82  84
1720780775,041:  -3506  82  84
1720780775,041:  -1220  82  84
1720780775,041:   -513  82  84
1720780775,041:  -2204  82  84
1720780775,041:  -3894  82  84
1720780775,041:  -3211  82  84
1720780775,041:  -1045  82  84
1720780775,041:   -289  82  84
1720780775,041:  -1992  82  84
1720780775,041:  -3883  82  84
1720780775,041:  -3397  82  84
1720780775,041:  -1126  82  84
1720780775,041:     22  82  84
1720780775,041:  -1332  82  84
1720780775,041:  -3212  82  84
1720780775,041:  -2953  82  84
1720780775,041:   -848  82  84
1720780775,041:    300  82  84
1720780775,041:  -1086  82  84
1720780775,041:  -3195  82  84
1720780775,041:  -3199  82  84
1720780775,041:  -1073  82  84
1720780775,071:    426  82  84
1720780775,071:   -584  82  84
1720780775,071:  -2624  82  84
1720780775,071:  -2834  82  84
1720780775,071:   -884  82  84
1720780775,071:    629  82  84
1720780775,071:   -347  82  84
1720780775,071:  -2559  82  84
1720780775,102:  -3058  82  84
1720780775,102:  -1189  82  84
1720780775,102:    586  82  84
1720780775,102:    -25  82  84
1720780775,102:  -2113  82  84
1720780775,102:  -2787  82  84
1720780775,102:  -1119  82  84
1720780775,102:    631  82  84
1720780775,102:     60  82  84
1720780775,102:  -2174  82  84
1720780775,102:  -3144  82  84
1720780775,102:  -1605  82  84
1720780775,102:    388  82  84
1720780775,102:    246  82  84
1720780775,102:  -1744  82  84
1720780775,102:  -2812  82  84
1720780775,102:  -1489  82  84
1720780775,102:    422  82  84
1720780775,102:    310  82  84
1720780775,102:  -1770  82  84
1720780775,102:  -3084  82  84
1720780775,102:  -1911  82  84
1720780775,134:    173  82  84
1720780775,134:    431  82  84
1720780775,134:  -1412  82  84
1720780775,134:  -2796  82  84
1720780775,134:  -1802  82  84
1720780775,134:    238  82  84
1720780775,134:    583  82  84
1720780775,134:  -1285  82  84
1720780775,134:  -2885  82  84
1720780775,134:  -2072  82  84
1720780775,134:     94  82  84
1720780775,134:    814  82  84
1720780775,134:   -749  82  84
1720780775,134:  -2374  82  84
1720780775,134:  -1801  82  84
1720780775,167:    181  82  84
1720780775,167:    873  82  84
1720780775,167:   -733  82  84
1720780775,167:  -2549  82  84
1720780775,167:  -2213  82  84
1720780775,167:   -312  82  84
1720780775,167:    439  82  84
1720780775,167:  -1175  82  84
1720780775,167:  -3215  82  84
1720780775,167:  -3157  82  84
1720780775,167:  -1335  82  84
1720780775,167:   -445  82  84
1720780775,167:  -1967  82  84
1720780775,167:  -4124  82  84
1720780775,167:  -4176  82  84
1720780775,198:  -2085  82  84
1720780775,198:   -517  82  84
1720780775,198:  -1356  82  84
1720780775,198:  -3276  82  84
1720780775,198:  -3549  82  84
1720780775,198:  -1767  82  84
1720780775,198:   -319  82  84
1720780775,198:  -1187  82  84
1720780775,198:  -3282  82  84
1720780775,198:  -3834  82  84
1720780775,198:  -2125  82  84
1720780775,198:   -391  82  84
1720780775,198:   -829  82  84
1720780775,198:  -2707  82  84
1720780775,198:  -3333  82  84
1720780775,230:  -1739  82  84
1720780775,230:     14  82  84
1720780775,230:   -427  82  84
1720780775,230:  -2606  82  84
1720780775,230:  -3808  82  84
1720780775,230:  -2715  82  84
1720780775,230:  -1110  82  84
1720780775,230:  -1434  82  84
1720780775,230:  -3514  82  84
1720780775,230:  -4730  82  84
1720780775,230:  -3524  82  84
1720780775,230:  -1431  82  84
1720780775,230:   -922  82  84
1720780775,230:  -2061  82  84
1720780775,230:  -2284  82  84
1720780775,230:    156  82  84
1720780775,230:   3830  82  84
1720780775,230:   5976  82  84
1720780775,230:   6014  82  84
1720780775,230:   6193  82  84
1720780775,230:   8420  82  84
1720780775,230:  11574  82  84
1720780775,230:  12950  82  84
1720780775,261:  11729  82  83
1720780775,261:  10043  82  83
1720780775,261:  10050  82  83
1720780775,261:  11035  82  83
1720780775,261:  10432  82  83
1720780775,261:   7264  82  83
1720780775,261:   3538  82  83
1720780775,261:   1701  82  83
1720780775,261:   1533  82  83
1720780775,261:    741  82  83
1720780775,261:  -1831  82  83
1720780775,261:  -4517  82  83
1720780775,261:  -5037  82  83
1720780775,261:  -3576  82  83
1720780775,261:  -2493  82  83
1720780775,293:  -3239  82  83
1720780775,293:  -4532  82  83
1720780775,293:  -4259  82  83
1720780775,293:  -2558  82  83
1720780775,293:  -1689  82  83
1720780775,293:  -3023  82  83
1720780775,293:  -5095  82  83
1720780775,324:  -5428  82  83
1720780775,324:  -3827  82  83
1720780775,324:  -2585  82  83
1720780775,324:  -3438  82  83
1720780775,324:  -5267  82  83
1720780775,324:  -5582  82  83
1720780775,324:  -3926  82  83
1720780775,324:  -2460  82  83
1720780775,324:  -3095  82  83
1720780775,324:  -4961  82  83
1720780775,324:  -5534  82  83
1720780775,324:  -4066  82  83
1720780775,324:  -2523  82  83
1720780775,324:  -2921  82  83
1720780775,324:  -4629  82  83
1720780775,324:  -5187  82  83
1720780775,324:  -3664  82  83
1720780775,324:  -1915  82  83
1720780775,324:  -2114  82  83
1720780775,324:  -3891  82  83
1720780775,324:  -4773  82  83
1720780775,324:  -3525  82  83
1720780775,324:  -1757  82  83
1720780775,355:  -1726  82  83
1720780775,355:  -3346  82  83
1720780775,355:  -4289  82  83
1720780775,355:  -3165  82  83
1720780775,355:  -1400  82  83
1720780775,355:  -1292  82  83
1720780775,355:  -2969  82  83
1720780775,355:  -4135  82  83
1720780775,355:  -3169  82  83
1720780775,355:  -1273  82  83
1720780775,355:   -832  82  83
1720780775,355:  -2267  82  83
1720780775,355:  -3480  82  83
1720780775,355:  -2706  82  83
1720780775,355:   -915  82  83
1720780775,387:   -466  82  83
1720780775,387:  -1973  82  83
1720780775,387:  -3418  82  83
1720780775,387:  -2849  82  83
1720780775,387:   -997  82  83
1720780775,387:   -248  82  83
1720780775,387:  -1485  82  83
1720780775,387:  -2918  82  83
1720780775,387:  -2508  82  83
1720780775,387:   -762  82  83
1720780775,387:      1  82  83
1720780775,387:  -1270  82  83
1720780775,387:  -2892  82  83
1720780775,387:  -2680  82  83
1720780775,387:   -888  82  83
1720780775,418:    170  82  83
1720780775,418:   -811  82  83
1720780775,418:  -2405  82  83
1720780775,418:  -2366  82  83
1720780775,418:   -706  82  83
1720780775,418:    373  82  83
1720780775,418:   -593  82  83
1720780775,418:  -2340  82  83
1720780775,418:  -2524  82  83
1720780775,418:   -889  82  83
1720780775,418:    438  82  83
1720780775,418:   -226  82  83
1720780775,418:  -1898  82  83
1720780775,418:  -2243  82  83
1720780775,418:   -764  82  83
1720780775,418:    557  82  83
1720780775,418:    -80  82  83
1720780775,418:  -1877  82  83
1720780775,418:  -2441  82  83
1720780775,418:  -1016  82  83
1720780775,418:    540  82  83
1720780775,418:    237  82  83
1720780775,450:  -1420  82  83
1720780775,450:  -2106  82  83
1720780775,450:   -850  82  83
1720780775,450:    665  82  83
1720780775,450:    378  82  83
1720780775,450:  -1401  82  83
1720780775,450:  -2324  82  83
1720780775,450:  -1170  82  83
1720780775,481:    547  82  83
1720780775,481:    614  82  83
1720780775,481:   -959  82  83
1720780775,481:  -1948  82  83
1720780775,481:   -942  82  83
1720780775,481:    738  82  83
1720780775,481:    840  82  83
1720780775,481:   -832  82  83
1720780775,481:  -2079  82  83
1720780775,481:  -1260  82  83
1720780775,481:    521  82  83
1720780775,481:    925  82  83
1720780775,481:   -529  82  83
1720780775,481:  -1810  82  83
1720780775,481:  -1122  82  83
1720780775,481:    643  82  83
1720780775,481:   1139  82  83
1720780775,481:   -339  82  83
1720780775,481:  -1848  82  83
1720780775,481:  -1394  82  83
1720780775,481:    404  82  83
1720780775,481:   1187  82  83
1720780775,513:    -18  82  83
1720780775,513:  -1501  82  83
1720780775,513:  -1189  82  83
1720780775,513:    515  82  83
1720780775,513:   1304  82  83
1720780775,513:     28  82  83
1720780775,513:  -1717  82  83
1720780775,513:  -1696  82  83
1720780775,513:    -36  82  83
1720780775,513:    993  82  83
1720780775,513:     -4  82  83
1720780775,513:  -1696  82  83
1720780775,513:  -1807  82  83
1720780775,513:   -232  82  83
1720780775,513:    857  82  83
1720780775,544:    -96  82  83
1720780775,544:  -1927  82  83
1720780775,544:  -2261  82  83
1720780775,544:   -720  82  83
1720780775,544:    618  82  83
1720780775,544:    -11  82  83
1720780775,544:  -1718  82  83
1720780775,544:  -2147  82  83
1720780775,544:   -697  82  83
1720780775,544:    680  82  83
1720780775,544:     93  82  83
1720780775,544:  -1762  82  83
1720780775,544:  -2453  82  83
1720780775,544:  -1096  82  83
1720780775,544:    504  82  83
1720780775,576:    266  82  83
1720780775,576:  -1417  82  83
1720780775,576:  -2198  82  83
1720780775,576:   -976  82  83
1720780775,576:    626  82  83
1720780775,576:    446  82  83
1720780775,576:  -1342  82  83
1720780775,576:  -2385  82  83
1720780775,576:  -1323  82  83
1720780775,576:    421  82  83
1720780775,576:    569  82  83
1720780775,576:  -1006  82  83
1720780775,576:  -2100  82  83
1720780775,576:  -1180  82  83
1720780775,576:    537  82  83
1720780775,608:    749  82  83
1720780775,608:   -879  82  83
1720780775,608:  -2198  82  83
1720780775,608:  -1461  82  83
1720780775,608:    348  82  83
1720780775,608:    869  82  83
1720780775,608:   -513  82  83
1720780775,608:  -1842  82  83
1720780775,608:  -1249  82  83
1720780775,608:    493  82  83
1720780775,608:   1049  82  83
1720780775,608:   -390  82  83
1720780775,608:  -1950  82  83
1720780775,608:  -1576  82  83
1720780775,608:    217  82  83
1720780775,639:   1074  82  83
1720780775,639:    -83  82  83
1720780775,639:  -1619  82  83
1720780775,639:  -1391  82  83
1720780775,639:    325  82  83
1720780775,639:   1243  82  83
1720780775,639:     97  82  83
1720780775,639:  -1626  82  83
1720780775,639:  -1648  82  83
1720780775,639:     35  82  83
1720780775,639:   1200  82  83
1720780775,639:    350  82  83
1720780775,639:  -1300  82  83
1720780775,639:  -1452  82  83
1720780775,639:    119  82  83
1720780775,670:   1295  82  83
1720780775,670:    437  82  83
1720780775,670:  -1393  82  83
1720780775,670:  -1800  82  83
1720780775,670:   -289  82  83
1720780775,670:   1115  82  83
1720780775,670:    571  82  83
1720780775,670:  -1131  82  83
1720780775,670:  -1624  82  83
1720780775,670:   -211  82  83
1720780775,670:   1189  82  83
1720780775,670:    592  82  83
1720780775,670:  -1406  82  83
1720780775,670:  -2347  82  83
1720780775,670:  -1215  82  83
1720780775,670:    252  82  83
1720780775,670:    -96  82  83
1720780775,670:  -1977  82  83
1720780775,670:  -3034  82  83
1720780775,670:  -2030  82  83
1720780775,670:   -494  82  83
1720780775,670:   -635  82  83
1720780775,670:  -2420  82  83
1720780775,701:  -3556  82  83
1720780775,701:  -2604  82  83
1720780775,701:   -885  82  83
1720780775,701:   -688  82  83
1720780775,701:  -2240  82  83
1720780775,701:  -3407  82  83
1720780775,701:  -2602  82  83
1720780775,701:   -942  82  83
1720780775,701:   -704  82  83
1720780775,701:  -2296  82  83
1720780775,701:  -3634  82  83
1720780775,701:  -2942  82  83
1720780775,733:  -1133  82  83
1720780775,733:   -552  82  83
1720780775,733:  -1877  82  83
1720780775,733:  -3220  82  83
1720780775,733:  -2682  82  83
1720780775,733:   -947  82  83
1720780775,733:   -326  82  83
1720780775,733:  -1687  82  83
1720780775,733:  -3240  82  83
1720780775,733:  -2916  82  83
1720780775,733:  -1143  82  83
1720780775,733:   -225  82  83
1720780775,733:  -1292  82  83
1720780775,733:  -2801  82  83
1720780775,733:  -2625  82  83
1720780775,764:   -967  82  83
1720780775,764:    -43  82  83
1720780775,764:  -1136  82  83
1720780775,764:  -2828  82  83
1720780775,764:  -2860  82  83
1720780775,764:  -1171  82  83
1720780775,764:     59  82  83
1720780775,764:   -692  82  83
1720780775,764:  -2283  82  83
1720780775,764:  -2441  82  83
1720780775,764:   -875  82  83
1720780775,764:    361  82  83
1720780775,764:   -391  82  83
1720780775,764:  -2159  82  83
1720780775,764:  -2582  82  83
1720780775,796:  -1103  82  83
1720780775,796:    333  82  83
1720780775,796:   -121  82  83
1720780775,796:  -1763  82  83
1720780775,796:  -2275  82  83
1720780775,796:   -893  82  83
1720780775,796:    567  82  83
1720780775,796:    145  82  83
1720780775,796:  -1647  82  83
1720780775,796:  -2433  82  83
1720780775,796:  -1177  82  83
1720780775,796:    472  82  83
1720780775,796:    395  82  83
1720780775,796:  -1191  82  83
1720780775,796:  -2022  82  83
1720780775,796:   -879  82  83
1720780775,796:    762  82  83
1720780775,796:    730  82  83
1720780775,796:   -953  82  83
1720780775,796:  -2023  82  83
1720780775,796:  -1024  82  83
1720780775,796:    758  82  83
1720780775,796:   1040  82  83
1720780775,827:   -438  82  83
1720780775,827:  -1562  82  83
1720780775,827:   -721  82  83
1720780775,827:    997  82  83
1720780775,827:   1290  82  83
1720780775,827:   -304  82  83
1720780775,827:  -1717  82  83
1720780775,827:  -1125  82  83
1720780775,827:    624  82  83
1720780775,827:   1193  82  83
1720780775,827:   -142  82  83
1720780775,827:  -1521  82  83
1720780775,827:  -1021  82  83
1720780775,827:    699  82  83
1720780775,827:   1318  82  83
1720780775,859:    -73  82  83
1720780775,859:  -1693  82  83
1720780775,859:  -1434  82  83
1720780775,859:    306  82  83
1720780775,859:   1201  82  83
1720780775,859:     90  82  83
1720780775,859:  -1477  82  83
1720780775,859:  -1318  82  83
1720780775,859:    383  82  83
1720780775,859:   1352  82  83
1720780775,859:    240  82  83
1720780775,859:  -1535  82  83
1720780775,859:  -1639  82  83
1720780775,859:     28  82  83
1720780775,859:   1246  82  83
1720780775,890:    424  82  83
1720780775,890:  -1281  82  83
1720780775,890:  -1511  82  83
1720780775,890:     69  82  83
1720780775,890:   1336  82  83
1720780775,890:    539  82  83
1720780775,890:  -1343  82  83
1720780775,890:  -1844  82  83
1720780775,890:   -335  82  83
1720780775,890:   1173  82  83
1720780775,890:    718  82  83
1720780775,890:  -1016  82  83
1720780775,890:  -1608  82  83
1720780775,890:   -212  82  83
1720780775,890:   1302  82  83
1720780775,922:    856  82  83
1720780775,922:  -1059  82  83
1720780775,922:  -1955  82  83
1720780775,922:   -698  82  83
1720780775,922:   1011  82  83
1720780775,922:    923  82  83
1720780775,922:   -781  82  83
1720780775,922:  -1720  82  83
1720780775,922:   -564  82  83
1720780775,922:   1163  82  83
1720780775,922:   1139  82  83
1720780775,922:   -679  82  83
1720780775,922:  -1912  82  83
1720780775,922:   -956  82  83
1720780775,922:    895  82  83
1720780775,953:   1223  82  83
1720780775,953:   -312  82  83
1720780775,953:  -1510  82  83
1720780775,953:   -628  82  83
1720780775,953:   1214  82  83
1720780775,953:   1532  82  83
1720780775,953:   -260  82  83
1720780775,953:  -2003  82  83
1720780775,953:  -1679  82  83
1720780775,953:    -86  82  83
1720780775,953:    299  82  83
1720780775,953:  -1343  82  83
1720780775,953:  -3023  82  83
1720780775,953:  -2556  82  83
1720780775,953:   -472  82  83
1720780775,985:    797  82  83
1720780775,985:    205  82  83
1720780775,985:   -415  82  83
1720780775,985:   1220  82  83
1720780775,985:   4719  82  83
1720780775,985:   7481  82  83
1720780775,985:   8019  82  83
1720780775,985:   7827  82  83
1720780775,985:   9278  82  83
1720780775,985:  12277  82  83
1720780775,985:  14310  82  83
1720780775,985:  13651  82  83
1720780775,985:  11605  82  83
1720780775,985:  10748  82  83
1720780775,985:  11448  82  83
1720780776,015:  11436  82  83
1720780776,015:   8879  82  83
1720780776,015:   4914  82  83
1720780776,015:   2319  82  83
1720780776,015:   1947  82  83
1720780776,015:   1837  82  83
1720780776,015:    -16  82  83
1720780776,015:  -2904  82  83
1720780776,015:  -4277  82  83
1720780776,015:  -3196  82  83
1720780776,015:  -1555  82  83
1720780776,015:  -1584  82  83
1720780776,015:  -2999  82  83
1720780776,015:  -3540  82  83
1720780776,015:  -2239  82  83
1720780776,045:   -811  82  83
1720780776,045:  -1339  82  83
1720780776,045:  -3427  82  83
1720780776,045:  -4571  82  83
1720780776,045:  -3500  82  83
1720780776,045:  -1833  82  83
1720780776,045:  -1886  82  83
1720780776,045:  -3590  82  83
1720780776,045:  -4557  82  83
1720780776,045:  -3342  82  83
1720780776,045:  -1415  82  83
1720780776,045:  -1201  82  83
1720780776,045:  -2900  82  83
1720780776,045:  -4176  82  83
1720780776,045:  -3318  82  83
1720780776,076:  -1498  82  83
1720780776,076:  -1133  82  83
1720780776,076:  -2646  82  83
1720780776,076:  -3869  82  83
1720780776,076:  -2980  82  83
1720780776,076:  -1005  82  83
1720780776,076:   -435  82  83
1720780776,076:  -1958  82  83
1720780776,076:  -3486  82  83
1720780776,076:  -2947  82  83
1720780776,076:  -1034  82  83
1720780776,076:   -210  82  83
1720780776,076:  -1428  82  83
1720780776,076:  -2859  82  83
1720780776,076:  -2368  82  83
1720780776,108:   -451  82  83
1720780776,108:    459  82  83
1720780776,108:   -801  82  83
1720780776,108:  -2523  82  83
1720780776,108:  -2385  82  83
1720780776,108:   -558  82  83
1720780776,108:    586  82  83
1720780776,108:   -376  82  83
1720780776,108:  -2033  82  83
1720780776,108:  -2046  82  83
1720780776,108:   -349  82  83
1720780776,108:    807  82  83
1720780776,108:   -145  82  83
1720780776,108:  -1963  82  83
1720780776,108:  -2215  82  83
1720780776,108:   -561  82  83
1720780776,108:    836  82  83
1720780776,108:    195  82  83
1720780776,108:  -1530  82  83
1720780776,108:  -1924  82  83
1720780776,108:   -418  82  83
1720780776,108:    974  82  83
1720780776,138:    354  82  83
1720780776,138:  -1512  82  83
1720780776,138:  -2149  82  83
1720780776,138:   -719  82  83
1720780776,138:    898  82  83
1720780776,138:    617  82  83
1720780776,138:  -1100  82  83
1720780776,138:  -1855  82  83
1720780776,138:   -590  82  83
1720780776,138:    997  82  83
1720780776,138:    745  82  83
1720780776,138:  -1091  82  83
1720780776,138:  -2099  82  83
1720780776,138:   -961  82  83
1720780776,138:    813  82  83
1720780776,170:    921  82  83
1720780776,170:   -695  82  83
1720780776,170:  -1769  82  83
1720780776,170:   -800  82  83
1720780776,170:    916  82  83
1720780776,170:   1058  82  83
1720780776,170:   -635  82  83
1720780776,170:  -1939  82  83
1720780776,170:  -1136  82  83
1720780776,170:    698  82  83
1720780776,170:   1161  82  83
1720780776,170:   -296  82  83
1720780776,170:  -1633  82  83
1720780776,170:   -985  82  83
1720780776,170:    796  82  83
1720780776,201:   1323  82  83
1720780776,201:   -165  82  83
1720780776,201:  -1721  82  83
1720780776,201:  -1289  82  83
1720780776,201:    545  82  83
1720780776,201:   1382  82  83
1720780776,201:    187  82  83
1720780776,201:  -1338  82  83
1720780776,201:  -1057  82  83
1720780776,201:    677  82  83
1720780776,201:   1541  82  83
1720780776,201:    323  82  83
1720780776,201:  -1403  82  83
1720780776,201:  -1361  82  83
1720780776,201:    367  82  83
1720780776,232:   1500  82  83
1720780776,232:    590  82  83
1720780776,232:  -1056  82  83
1720780776,232:  -1136  82  83
1720780776,232:    498  82  83
1720780776,232:   1669  82  83
1720780776,232:    781  82  83
1720780776,232:  -1023  82  83
1720780776,232:  -1344  82  83
1720780776,232:    226  82  83
1720780776,232:   1606  82  83
1720780776,232:   1005  82  83
1720780776,232:   -702  82  83
1720780776,232:  -1138  82  83
1720780776,232:    309  82  83
1720780776,264:   1680  82  83
1720780776,264:   1060  82  83
1720780776,264:   -844  82  83
1720780776,264:  -1575  82  83
1720780776,264:   -237  82  83
1720780776,264:   1347  82  83
1720780776,264:   1070  82  83
1720780776,264:   -671  82  83
1720780776,264:  -1500  82  83
1720780776,264:   -300  82  83
1720780776,264:   1295  82  83
1720780776,264:   1099  82  83
1720780776,264:   -722  82  83
1720780776,264:  -1804  82  83
1720780776,264:   -778  82  83
1720780776,295:    932  82  83
1720780776,295:   1045  82  83
1720780776,295:   -562  82  83
1720780776,295:  -1681  82  83
1720780776,295:   -784  82  83
1720780776,295:    905  82  83
1720780776,295:   1081  82  83
1720780776,295:   -583  82  83
1720780776,295:  -1923  82  83
1720780776,295:  -1191  82  83
1720780776,295:    619  82  83
1720780776,295:   1132  82  83
1720780776,295:   -270  82  83
1720780776,295:  -1620  82  83
1720780776,295:  -1037  82  83
1720780776,327:    703  82  83
1720780776,327:   1247  82  83
1720780776,327:   -216  82  83
1720780776,327:  -1802  82  83
1720780776,327:  -1438  82  83
1720780776,327:    354  82  83
1720780776,327:   1202  82  83
1720780776,327:     26  82  83
1720780776,327:  -1522  82  83
1720780776,327:  -1283  82  83
1720780776,327:    452  82  83
1720780776,327:   1366  82  83
1720780776,327:    189  82  83
1720780776,327:  -1560  82  83
1720780776,327:  -1574  82  83
1720780776,358:    135  82  83
1720780776,358:   1302  82  83
1720780776,358:    421  82  83
1720780776,358:  -1255  82  83
1720780776,358:  -1396  82  83
1720780776,358:    213  82  83
1720780776,358:   1415  82  83
1720780776,358:    551  82  83
1720780776,358:  -1294  82  83
1720780776,358:  -1692  82  83
1720780776,358:   -144  82  83
1720780776,358:   1298  82  83
1720780776,358:    767  82  83
1720780776,358:   -951  82  83
1720780776,358:  -1469  82  83
1720780776,358:    -61  82  83
1720780776,358:   1386  82  83
1720780776,358:    903  82  83
1720780776,358:   -929  82  83
1720780776,358:  -1692  82  83
1720780776,358:   -399  82  83
1720780776,358:   1221  82  83
1720780776,358:   1050  82  83
1720780776,390:   -616  82  83
1720780776,390:  -1459  82  83
1720780776,390:   -303  82  83
1720780776,390:   1303  82  83
1720780776,390:   1177  82  83
1720780776,390:   -591  82  83
1720780776,390:  -1684  82  83
1720780776,422:   -679  82  83
1720780776,422:   1074  82  83
1720780776,422:   1283  82  83
1720780776,422:   -258  82  83
1720780776,422:  -1396  82  83
1720780776,422:   -548  82  83
1720780776,422:   1145  82  83
1720780776,422:   1387  82  83
1720780776,422:   -227  82  83
1720780776,422:  -1595  82  83
1720780776,422:   -928  82  83
1720780776,422:    861  82  83
1720780776,422:   1414  82  83
1720780776,422:     50  82  83
1720780776,422:  -1331  82  83
1720780776,422:   -819  82  83
1720780776,422:    900  82  83
1720780776,422:   1503  82  83
1720780776,422:    114  82  83
1720780776,422:  -1470  82  83
1720780776,422:  -1169  82  83
1720780776,422:    586  82  83
1720780776,422:   1476  82  83
1720780776,453:    370  82  83
1720780776,453:  -1175  82  83
1720780776,453:  -1016  82  83
1720780776,453:    641  82  83
1720780776,453:   1556  82  83
1720780776,453:    432  82  83
1720780776,453:  -1303  82  83
1720780776,453:  -1373  82  83
1720780776,453:    284  82  83
1720780776,453:   1473  82  83
1720780776,453:    660  82  83
1720780776,453:   -999  82  83
1720780776,453:  -1206  82  83
1720780776,453:    331  82  83
1720780776,453:   1540  82  83
1720780776,485:    746  82  83
1720780776,485:  -1067  82  83
1720780776,485:  -1515  82  83
1720780776,485:    -34  82  83
1720780776,485:   1407  82  83
1720780776,485:    931  82  83
1720780776,485:   -767  82  83
1720780776,485:  -1342  82  83
1720780776,485:      2  82  83
1720780776,485:   1457  82  83
1720780776,485:   1036  82  83
1720780776,485:   -776  82  83
1720780776,485:  -1605  82  83
1720780776,485:   -389  82  83
1720780776,485:   1245  82  83
1720780776,516:   1168  82  83
1720780776,516:   -441  82  83
1720780776,516:  -1339  82  83
1720780776,516:   -286  82  83
1720780776,516:   1288  82  83
1720780776,516:   1228  82  83
1720780776,516:   -472  82  83
1720780776,516:  -1590  82  83
1720780776,516:   -670  82  83
1720780776,516:   1042  82  83
1720780776,516:   1301  82  83
1720780776,516:   -172  82  83
1720780776,516:  -1315  82  83
1720780776,516:   -537  82  83
1720780776,516:   1114  82  83
1720780776,547:   1394  82  83
1720780776,547:   -155  82  83
1720780776,547:  -1520  82  83
1720780776,547:   -920  82  83
1720780776,547:    814  82  83
1720780776,547:   1391  82  83
1720780776,547:     98  82  83
1720780776,547:  -1249  82  83
1720780776,547:   -770  82  83
1720780776,547:    902  82  83
1720780776,547:   1507  82  83
1720780776,547:    157  82  83
1720780776,547:  -1413  82  83
1720780776,547:  -1145  82  83
1720780776,547:    575  82  83
1720780776,547:   1481  82  83
1720780776,547:    425  82  83
1720780776,547:  -1098  82  83
1720780776,547:   -968  82  83
1720780776,547:    659  82  83
1720780776,547:   1593  82  83
1720780776,547:    523  82  83
1720780776,579:  -1190  82  83
1720780776,579:  -1300  82  83
1720780776,579:    296  82  83
1720780776,579:   1470  82  83
1720780776,579:    695  82  83
1720780776,579:   -931  82  83
1720780776,579:  -1150  82  83
1720780776,579:    358  82  83
1720780776,579:   1571  82  83
1720780776,579:    820  82  83
1720780776,579:   -960  82  83
1720780776,579:  -1427  82  83
1720780776,579:     15  82  83
1720780776,579:   1458  82  83
1720780776,579:   1038  82  83
1720780776,611:   -604  82  83
1720780776,611:  -1188  82  83
1720780776,611:     88  82  83
1720780776,611:   1483  82  83
1720780776,611:   1068  82  83
1720780776,611:   -697  82  83
1720780776,611:  -1502  82  83
1720780776,611:   -313  82  83
1720780776,643:   1273  82  83
1720780776,643:   1180  82  83
1720780776,643:   -404  82  83
1720780776,643:  -1270  82  83
1720780776,643:   -201  82  83
1720780776,643:   1376  82  83
1720780776,643:   1320  82  83
1720780776,643:   -379  82  83
1720780776,643:  -1513  82  83
1720780776,643:   -621  82  83
1720780776,643:   1073  82  83
1720780776,643:   1332  82  83
1720780776,643:   -134  82  83
1720780776,643:  -1277  82  83
1720780776,643:   -499  82  83
1720780776,643:   1162  82  83
1720780776,643:   1457  82  83
1720780776,643:    -92  82  83
1720780776,643:  -1472  82  83
1720780776,643:   -875  82  83
1720780776,643:    885  82  83
1720780776,643:   1491  82  83
1720780776,674:    193  82  83
1720780776,674:  -1195  82  83
1720780776,674:   -742  82  83
1720780776,674:    957  82  83
1720780776,674:   1622  82  83
1720780776,674:    311  82  83
1720780776,674:  -1271  82  83
1720780776,674:  -1033  82  83
1720780776,674:    684  82  83
1720780776,674:   1610  82  83
1720780776,674:    560  82  83
1720780776,674:   -993  82  83
1720780776,674:   -899  82  83
1720780776,674:    719  82  83
1720780776,674:   1667  82  83
1720780776,705:    595  82  83
1720780776,705:  -1158  82  83
1720780776,705:  -1308  82  83
1720780776,705:    301  82  83
1720780776,705:   1535  82  83
1720780776,705:    810  82  83
1720780776,705:   -822  82  83
1720780776,705:  -1088  82  83
1720780776,705:    385  82  83
1720780776,705:   1597  82  83
1720780776,705:    853  82  83
1720780776,705:   -952  82  83
1720780776,705:  -1465  82  83
1720780776,705:    -55  82  83
1720780776,705:   1384  82  83
1720780776,705:    962  82  83
1720780776,705:   -698  82  83
1720780776,705:  -1289  82  83
1720780776,705:     29  82  83
1720780776,705:   1498  82  83
1720780776,736:   1122  82  83
1720780776,736:   -678  82  83
1720780776,736:  -1551  82  83
1720780776,736:   -384  82  83
1720780776,736:   1249  82  83
1720780776,736:   1215  82  83
1720780776,736:   -360  82  83
1720780776,736:  -1254  82  83
1720780776,736:   -177  82  83
1720780776,736:   1477  82  83
1720780776,736:   1514  82  83
1720780776,736:   -183  82  83
1720780776,736:  -1452  82  83
1720780776,736:   -783  82  83
1720780776,736:    678  82  83
1720780776,767:    696  82  83
1720780776,767:  -1066  82  83
1720780776,767:  -2553  82  83
1720780776,767:  -2042  82  83
1720780776,767:   -415  82  83
1720780776,767:    134  82  83
1720780776,767:   -922  82  83
1720780776,767:  -1610  82  83
1720780776,767:    -44  82  83
1720780776,767:   3065  82  83
1720780776,767:   5352  82  83
1720780776,767:   5831  82  83
1720780776,767:   6081  82  83
1720780776,767:   7996  82  83
1720780776,767:  11097  82  83
1720780776,798:  13124  75  80
1720780776,798:  12921  75  80
1720780776,798:  11910  75  80
1720780776,798:  12101  75  80
1720780776,798:  13324  75  80
1720780776,798:  13481  75  80
1720780776,798:  11327  75  80
1720780776,798:   8143  75  80
1720780776,798:   6073  75  80
1720780776,798:   5340  75  80
1720780776,798:   4206  75  80
1720780776,798:   1533  75  80
1720780776,798:  -1475  75  80
1720780776,798:  -2741  75  80
1720780776,798:  -2098  75  80
1720780776,829:  -1473  75  80
1720780776,829:  -2314  75  80
1720780776,829:  -3689  75  80
1720780776,829:  -3599  75  80
1720780776,829:  -1873  75  80
1720780776,829:   -570  75  80
1720780776,829:  -1366  75  80
1720780776,829:  -3344  75  80
1720780776,829:  -4098  75  80
1720780776,829:  -2900  75  80
1720780776,829:  -1571  75  80
1720780776,829:  -2032  75  80
1720780776,829:  -3758  75  80
1720780776,829:  -4460  75  80
1720780776,829:  -3185  75  80
1720780776,861:  -1581  75  80
1720780776,861:  -1687  75  80
1720780776,861:  -3249  75  80
1720780776,861:  -4030  75  80
1720780776,861:  -2872  75  80
1720780776,861:  -1245  75  80
1720780776,861:  -1262  75  80
1720780776,861:  -2855  75  80
1720780776,861:  -3821  75  80
1720780776,861:  -2784  75  80
1720780776,861:  -1040  75  80
1720780776,861:   -803  75  80
1720780776,861:  -2295  75  80
1720780776,861:  -3415  75  80
1720780776,861:  -2592  75  80
1720780776,861:   -880  75  80
1720780776,861:   -504  75  80
1720780776,861:  -1895  75  80
1720780776,861:  -3084  75  80
1720780776,861:  -2361  75  80
1720780776,861:   -603  75  80
1720780776,861:    -76  75  80
1720780776,892:  -1447  75  80
1720780776,892:  -2844  75  80
1720780776,892:  -2360  75  80
1720780776,892:   -603  75  80
1720780776,892:    162  75  80
1720780776,892:   -982  75  80
1720780776,892:  -2384  75  80
1720780776,892:  -2053  75  80
1720780776,924:   -378  75  80
1720780776,924:    434  75  80
1720780776,924:   -717  75  80
1720780776,924:  -2307  75  80
1720780776,924:  -2202  75  80
1720780776,924:   -534  75  80
1720780776,924:    531  75  80
1720780776,924:   -336  75  80
1720780776,924:  -1861  75  80
1720780776,924:  -1882  75  80
1720780776,924:   -313  75  80
1720780776,924:    780  75  80
1720780776,924:    -72  75  80
1720780776,924:  -1751  75  80
1720780776,924:  -2005  75  80
1720780776,955:   -491  75  80
1720780776,955:    813  75  80
1720780776,955:    242  75  80
1720780776,955:  -1347  75  80
1720780776,955:  -1722  75  80
1720780776,955:   -337  75  80
1720780776,955:    961  75  80
1720780776,955:    406  75  80
1720780776,955:  -1317  75  80
1720780776,955:  -1920  75  80
1720780776,955:   -602  75  80
1720780776,955:    914  75  80
1720780776,955:    685  75  80
1720780776,955:   -885  75  80
1720780776,955:  -1580  75  80
1720780776,987:   -397  75  80
1720780776,987:   1110  75  80
1720780776,987:    927  75  80
1720780776,987:   -743  75  80
1720780776,987:  -1683  75  80
1720780776,987:   -650  75  80
1720780776,987:    987  75  80
1720780776,987:   1099  75  80
1720780776,987:   -387  75  80
1720780776,987:  -1386  75  80
1720780776,987:   -492  75  80
1720780776,987:   1115  75  80
1720780776,987:   1279  75  80
1720780776,987:   -274  75  80
1720780776,987:  -1495  75  80
1720780776,987:   -765  75  80
1720780776,987:    954  75  80
1720780776,987:   1437  75  80
1720780776,987:    134  75  80
1720780776,987:  -1100  75  80
1720780776,987:   -525  75  80
1720780776,987:   1110  75  80
1720780777,017:   1615  75  80
1720780777,017:    264  75  80
1720780777,017:  -1172  75  80
1720780777,017:   -791  75  80
1720780777,017:    887  75  80
1720780777,017:   1659  75  80
1720780777,017:    555  75  80
1720780777,017:   -864  75  80
1720780777,017:   -616  75  80
1720780777,017:    993  75  80
1720780777,017:   1814  75  80
1720780777,017:    705  75  80
1720780777,017:   -893  75  80
1720780777,017:   -864  75  80
1720780777,017:    737  75  80
1720780777,048:   1804  75  80
1720780777,048:    974  75  80
1720780777,048:   -557  75  80
1720780777,048:   -649  75  80
1720780777,048:    844  75  80
1720780777,048:   1911  75  80
1720780777,048:   1055  75  80
1720780777,048:   -670  75  80
1720780777,079:  -1024  75  80
1720780777,079:    399  75  80
1720780777,079:   1671  75  80
1720780777,079:   1101  75  80
1720780777,079:   -524  75  80
1720780777,079:   -991  75  80
1720780777,079:    309  75  80
1720780777,079:   1585  75  80
1720780777,079:   1045  75  80
1720780777,079:   -700  75  80
1720780777,079:  -1395  75  80
1720780777,079:   -193  75  80
1720780777,079:   1253  75  80
1720780777,079:   1005  75  80
1720780777,079:   -585  75  80
1720780777,079:  -1344  75  80
1720780777,079:   -240  75  80
1720780777,079:   1225  75  80
1720780777,079:   1040  75  80
1720780777,079:   -639  75  80
1720780777,079:  -1631  75  80
1720780777,079:   -664  75  80
1720780777,110:    952  75  80
1720780777,110:   1098  75  80
1720780777,110:   -353  75  80
1720780777,110:  -1372  75  80
1720780777,110:   -540  75  80
1720780777,110:   1024  75  80
1720780777,110:   1194  75  80
1720780777,110:   -339  75  80
1720780777,110:  -1583  75  80
1720780777,110:   -915  75  80
1720780777,110:    749  75  80
1720780777,110:   1217  75  80
1720780777,110:    -84  75  80
1720780777,110:  -1337  75  80
1720780777,110:   -799  75  80
1720780777,142:    823  75  80
1720780777,142:   1351  75  80
1720780777,142:     23  75  80
1720780777,142:  -1434  75  80
1720780777,142:  -1106  75  80
1720780777,142:    544  75  80
1720780777,142:   1338  75  80
1720780777,142:    277  75  80
1720780777,142:  -1133  75  80
1720780777,142:   -915  75  80
1720780777,142:    665  75  80
1720780777,142:   1485  75  80
1720780777,142:    387  75  80
1720780777,142:  -1228  75  80
1720780777,142:  -1245  75  80
1720780777,174:    326  75  80
1720780777,174:   1401  75  80
1720780777,174:    597  75  80
1720780777,174:   -939  75  80
1720780777,174:  -1075  75  80
1720780777,174:    389  75  80
1720780777,174:   1483  75  80
1720780777,174:    697  75  80
1720780777,174:   -977  75  80
1720780777,174:  -1324  75  80
1720780777,174:     97  75  80
1720780777,174:   1403  75  80
1720780777,174:    899  75  80
1720780777,174:   -676  75  80
1720780777,174:  -1136  75  80
1720780777,205:    165  75  80
1720780777,205:   1479  75  80
1720780777,205:   1010  75  80
1720780777,205:   -688  75  80
1720780777,205:  -1387  75  80
1720780777,205:   -192  75  80
1720780777,205:   1300  75  80
1720780777,205:   1147  75  80
1720780777,205:   -375  75  80
1720780777,205:  -1144  75  80
1720780777,205:    -90  75  80
1720780777,205:   1362  75  80
1720780777,205:   1226  75  80
1720780777,205:   -400  75  80
1720780777,205:  -1392  75  80
1720780777,236:   -462  75  80
1720780777,236:   1141  75  80
1720780777,236:   1319  75  80
1720780777,236:   -106  75  80
1720780777,236:  -1151  75  80
1720780777,236:   -366  75  80
1720780777,236:   1195  75  80
1720780777,236:   1422  75  80
1720780777,236:    -59  75  80
1720780777,236:  -1318  75  80
1720780777,236:   -710  75  80
1720780777,236:    926  75  80
1720780777,236:   1431  75  80
1720780777,236:    178  75  80
1720780777,236:  -1086  75  80
1720780777,236:   -609  75  80
1720780777,236:    969  75  80
1720780777,236:   1511  75  80
1720780777,236:    215  75  80
1720780777,236:  -1252  75  80
1720780777,236:   -966  75  80
1720780777,236:    668  75  80
1720780777,236:   1499  75  80
1720780777,267:    481  75  80
1720780777,267:   -946  75  80
1720780777,267:   -797  75  80
1720780777,267:    738  75  80
1720780777,267:   1586  75  80
1720780777,267:    549  75  80
1720780777,267:  -1056  75  80
1720780777,298:  -1123  75  80
1720780777,298:    400  75  80
1720780777,298:   1486  75  80
1720780777,298:    723  75  80
1720780777,298:   -812  75  80
1720780777,298:   -998  75  80
1720780777,298:    429  75  80
1720780777,298:   1547  75  80
1720780777,298:    811  75  80
1720780777,298:   -868  75  80
1720780777,298:  -1283  75  80
1720780777,298:     85  75  80
1720780777,298:   1418  75  80
1720780777,298:    987  75  80
1720780777,298:   -564  75  80
1720780777,298:  -1078  75  80
1720780777,298:    160  75  80
1720780777,298:   1478  75  80
1720780777,298:   1063  75  80
1720780777,298:   -613  75  80
1720780777,298:  -1356  75  80
1720780777,298:   -213  75  80
1720780777,298:   1282  75  80
1720780777,330:   1171  75  80
1720780777,330:   -338  75  80
1720780777,330:  -1146  75  80
1720780777,330:   -125  75  80
1720780777,330:   1355  75  80
1720780777,330:   1284  75  80
1720780777,330:   -320  75  80
1720780777,330:  -1360  75  80
1720780777,330:   -488  75  80
1720780777,330:   1115  75  80
1720780777,330:   1342  75  80
1720780777,330:    -50  75  80
1720780777,330:  -1117  75  80
1720780777,330:   -369  75  80
1720780777,330:   1195  75  80
1720780777,362:   1460  75  80
1720780777,362:      1  75  80
1720780777,362:  -1283  75  80
1720780777,362:   -709  75  80
1720780777,362:    935  75  80
1720780777,362:   1478  75  80
1720780777,362:    241  75  80
1720780777,362:  -1053  75  80
1720780777,362:   -607  75  80
1720780777,362:    995  75  80
1720780777,362:   1600  75  80
1720780777,362:    336  75  80
1720780777,362:  -1169  75  80
1720780777,362:   -947  75  80
1720780777,362:    675  75  80
1720780777,392:   1548  75  80
1720780777,392:    554  75  80
1720780777,392:   -914  75  80
1720780777,392:   -826  75  80
1720780777,392:    708  75  80
1720780777,392:   1617  75  80
1720780777,392:    624  75  80
1720780777,392:  -1018  75  80
1720780777,392:  -1162  75  80
1720780777,392:    342  75  80
1720780777,392:   1490  75  80
1720780777,392:    792  75  80
1720780777,392:   -760  75  80
1720780777,392:  -1024  75  80
1720780777,392:    358  75  80
1720780777,423:   1503  75  80
1720780777,423:    807  75  80
1720780777,423:   -892  75  80
1720780777,423:  -1379  75  80
1720780777,423:    -53  75  80
1720780777,423:   1310  75  80
1720780777,423:    923  75  80
1720780777,423:   -642  75  80
1720780777,423:  -1219  75  80
1720780777,423:     -2  75  80
1720780777,423:   1380  75  80
1720780777,423:   1051  75  80
1720780777,423:   -610  75  80
1720780777,423:  -1418  75  80
1720780777,423:   -329  75  80
1720780777,453:   1191  75  80
1720780777,453:   1147  75  80
1720780777,453:   -341  75  80
1720780777,453:  -1200  75  80
1720780777,453:   -228  75  80
1720780777,453:   1269  75  80
1720780777,453:   1256  75  80
1720780777,453:   -330  75  80
1720780777,453:  -1419  75  80
1720780777,453:   -594  75  80
1720780777,453:   1030  75  80
1720780777,453:   1320  75  80
1720780777,453:    -50  75  80
1720780777,453:  -1170  75  80
1720780777,453:   -485  75  80
1720780777,453:   1085  75  80
1720780777,453:   1416  75  80
1720780777,453:     -5  75  80
1720780777,453:  -1329  75  80
1720780777,453:   -827  75  80
1720780777,453:    800  75  80
1720780777,453:   1393  75  80
1720780777,485:    201  75  80
1720780777,485:  -1119  75  80
1720780777,485:   -741  75  80
1720780777,485:    831  75  80
1720780777,485:   1474  75  80
1720780777,485:    259  75  80
1720780777,485:  -1256  75  80
1720780777,485:  -1088  75  80
1720780777,517:    506  75  80
1720780777,517:   1423  75  80
1720780777,517:    497  75  80
1720780777,517:   -954  75  80
1720780777,517:   -904  75  80
1720780777,517:    598  75  80
1720780777,517:   1532  75  80
1720780777,517:    592  75  80
1720780777,517:  -1036  75  80
1720780777,517:  -1214  75  80
1720780777,517:    261  75  80
1720780777,517:   1430  75  80
1720780777,517:    777  75  80
1720780777,517:   -755  75  80
1720780777,517:  -1025  75  80
1720780777,548:    377  75  80
1720780777,548:   1598  75  80
1720780777,548:    987  75  80
1720780777,548:   -688  75  80
1720780777,548:  -1214  75  80
1720780777,548:     79  75  80
1720780777,548:   1466  75  80
1720780777,548:   1134  75  80
1720780777,548:   -419  75  80
1720780777,548:  -1045  75  80
1720780777,548:    118  75  80
1720780777,548:   1497  75  80
1720780777,548:   1201  75  80
1720780777,548:   -453  75  80
1720780777,548:  -1299  75  80
1720780777,579:   -244  75  80
1720780777,579:   1296  75  80
1720780777,579:   1301  75  80
1720780777,579:   -181  75  80
1720780777,579:  -1099  75  80
1720780777,579:   -191  75  80
1720780777,579:   1307  75  80
1720780777,579:   1349  75  80
1720780777,579:   -205  75  80
1720780777,579:  -1327  75  80
1720780777,579:   -560  75  80
1720780777,579:   1050  75  80
1720780777,579:   1376  75  80
1720780777,579:     29  75  80
1720780777,579:  -1121  75  80
1720780777,579:   -482  75  80
1720780777,579:   1084  75  80
1720780777,579:   1456  75  80
1720780777,579:     62  75  80
1720780777,579:  -1283  75  80
1720780777,579:   -809  75  80
1720780777,579:    847  75  80
1720780777,611:   1539  75  80
1720780777,611:    450  75  80
1720780777,611:   -830  75  80
1720780777,611:   -494  75  80
1720780777,611:    970  75  80
1720780777,611:   1451  75  80
1720780777,611:      8  75  80
1720780777,611:  -1808  75  80
1720780777,611:  -1984  75  80
1720780777,611:   -700  75  80
1720780777,611:     17  75  80
1720780777,611:   -945  75  80
1720780777,611:  -2232  75  80
1720780777,611:  -1768  75  80
1720780777,611:    467  75  80
1720780777,643:   2503  75  80
1720780777,643:   3005  75  80
1720780777,643:   3043  75  80
1720780777,643:   4594  75  80
1720780777,643:   7744  75  80
1720780777,643:  10500  75  80
1720780777,643:  11342  75  80
1720780777,643:  11156  75  80
1720780777,643:  11939  75  80
1720780777,643:  13949  75  80
1720780777,643:  15256  75  80
1720780777,643:  14254  75  80
1720780777,643:  11786  75  80
1720780777,643:  10073  75  80
1720780777,643:   9734  75  80
1720780777,674:   9051  71  78
1720780777,674:   6406  71  78
1720780777,674:   2637  71  78
1720780777,674:    170  71  78
1720780777,674:    -79  71  78
1720780777,674:    178  71  78
1720780777,674:  -1055  71  78
1720780777,674:  -3394  71  78
1720780777,674:  -4509  71  78
1720780777,674:  -3273  71  78
1720780777,674:  -1309  71  78
1720780777,674:   -950  71  78
1720780777,674:  -2342  71  78
1720780777,674:  -3396  71  78
1720780777,674:  -2684  71  78
1720780777,705:  -1332  71  78
1720780777,705:  -1410  71  78
1720780777,705:  -3129  71  78
1720780777,705:  -4463  71  78
1720780777,705:  -3858  71  78
1720780777,705:  -2270  71  78
1720780777,705:  -1830  71  78
1720780777,705:  -3018  71  78
1720780777,705:  -4035  71  78
1720780777,705:  -3280  71  78
1720780777,705:  -1576  71  78
1720780777,705:  -1074  71  78
1720780777,705:  -2430  71  78
1720780777,705:  -3869  71  78
1720780777,705:  -3527  71  78
1720780777,737:  -1906  71  78
1720780777,737:  -1122  71  78
1720780777,737:  -2083  71  78
1720780777,737:  -3286  71  78
1720780777,737:  -2877  71  78
1720780777,737:  -1229  71  78
1720780777,737:   -433  71  78
1720780777,737:  -1542  71  78
1720780777,737:  -3100  71  78
1720780777,737:  -3045  71  78
1720780777,737:  -1453  71  78
1720780777,737:   -376  71  78
1720780777,737:  -1112  71  78
1720780777,737:  -2497  71  78
1720780777,737:  -2487  71  78
1720780777,737:   -974  71  78
1720780777,737:     88  71  78
1720780777,737:   -716  71  78
1720780777,737:  -2335  71  78
1720780777,737:  -2605  71  78
1720780777,769:  -1158  71  78
1720780777,769:    130  71  78
1720780777,769:   -363  71  78
1720780777,769:  -1860  71  78
1720780777,769:  -2222  71  78
1720780777,769:   -876  71  78
1720780777,769:    425  71  78
1720780777,769:    -51  71  78
1720780777,769:  -1699  71  78
1720780777,769:  -2317  71  78
1720780777,769:  -1075  71  78
1720780777,769:    414  71  78
1720780777,769:    253  71  78
1720780777,769:  -1233  71  78
1720780777,769:  -1927  71  78
1720780777,800:   -813  71  78
1720780777,800:    663  71  78
1720780777,800:    541  71  78
1720780777,800:  -1044  71  78
1720780777,800:  -1977  71  78
1720780777,800:  -1016  71  78
1720780777,800:    568  71  78
1720780777,800:    717  71  78
1720780777,831:   -691  71  78
1720780777,831:  -1668  71  78
1720780777,831:   -829  71  78
1720780777,831:    727  71  78
1720780777,831:    920  71  78
1720780777,831:   -555  71  78
1720780777,831:  -1746  71  78
1720780777,831:  -1072  71  78
1720780777,831:    573  71  78
1720780777,831:   1049  71  78
1720780777,831:   -197  71  78
1720780777,831:  -1393  71  78
1720780777,831:   -844  71  78
1720780777,831:    742  71  78
1720780777,831:   1244  71  78
1720780777,831:    -63  71  78
1720780777,831:  -1477  71  78
1720780777,831:  -1136  71  78
1720780777,831:    482  71  78
1720780777,831:   1243  71  78
1720780777,831:    189  71  78
1720780777,831:  -1190  71  78
1720780777,862:   -961  71  78
1720780777,862:    598  71  78
1720780777,862:   1408  71  78
1720780777,862:    347  71  78
1720780777,862:  -1210  71  78
1720780777,862:  -1201  71  78
1720780777,862:    346  71  78
1720780777,862:   1400  71  78
1720780777,862:    622  71  78
1720780777,862:   -858  71  78
1720780777,862:   -962  71  78
1720780777,862:    488  71  78
1720780777,862:   1567  71  78
1720780777,862:    809  71  78
1720780777,862:   -808  71  78
1720780777,862:  -1130  71  78
1720780777,862:    262  71  78
1720780777,862:   1535  71  78
1720780777,862:   1050  71  78
1720780777,862:   -462  71  78
1720780777,862:   -878  71  78
1720780777,862:    413  71  78
1720780777,862:   1698  71  78
1720780777,894:   1238  71  78
1720780777,894:   -405  71  78
1720780777,894:  -1057  71  78
1720780777,894:    138  71  78
1720780777,894:   1604  71  78
1720780777,894:   1446  71  78
1720780777,894:    -45  71  78
1720780777,894:   -786  71  78
1720780777,894:    253  71  78
1720780777,894:   1657  71  78
1720780777,894:   1483  71  78
1720780777,894:   -153  71  78
1720780777,894:  -1155  71  78
1720780777,894:   -272  71  78
1720780777,894:   1250  71  78
1720780777,925:   1358  71  78
1720780777,925:    -90  71  78
1720780777,925:  -1129  71  78
1720780777,925:   -357  71  78
1720780777,925:   1162  71  78
1720780777,925:   1344  71  78
1720780777,925:   -151  71  78
1720780777,956:  -1403  71  78
1720780777,956:   -810  71  78
1720780777,956:    778  71  78
1720780777,956:   1234  71  78
1720780777,956:    -33  71  78
1720780777,956:  -1284  71  78
1720780777,956:   -812  71  78
1720780777,956:    727  71  78
1720780777,956:   1229  71  78
1720780777,956:    -66  71  78
1720780777,956:  -1502  71  78
1720780777,956:  -1210  71  78
1720780777,956:    384  71  78
1720780777,956:   1170  71  78
1720780777,956:    153  71  78
1720780777,956:  -1229  71  78
1720780777,956:  -1046  71  78
1720780777,956:    475  71  78
1720780777,956:   1285  71  78
1720780777,956:    236  71  78
1720780777,956:  -1340  71  78
1720780777,956:  -1378  71  78
1720780777,956:    134  71  78
1720780777,988:   1186  71  78
1720780777,988:    412  71  78
1720780777,988:  -1092  71  78
1720780777,988:  -1237  71  78
1720780777,988:    201  71  78
1720780777,988:   1305  71  78
1720780777,988:    564  71  78
1720780777,988:  -1085  71  78
1720780777,988:  -1467  71  78
1720780777,988:   -103  71  78
1720780777,988:   1197  71  78
1720780777,988:    749  71  78
1720780777,988:   -773  71  78
1720780777,988:  -1240  71  78
1720780777,988:     12  71  78
1720780778,019:   1304  71  78
1720780778,019:    865  71  78
1720780778,019:   -793  71  78
1720780778,019:  -1494  71  78
1720780778,019:   -337  71  78
1720780778,019:   1130  71  78
1720780778,019:    990  71  78
1720780778,019:   -502  71  78
1720780778,019:  -1257  71  78
1720780778,019:   -201  71  78
1720780778,019:   1270  71  78
1720780778,019:   1172  71  78
1720780778,019:   -428  71  78
1720780778,019:  -1434  71  78
1720780778,019:   -541  71  78
1720780778,050:   1040  71  78
1720780778,050:   1228  71  78
1720780778,050:   -173  71  78
1720780778,050:  -1208  71  78
1720780778,050:   -431  71  78
1720780778,050:   1123  71  78
1720780778,050:   1352  71  78
1720780778,050:   -123  71  78
1720780778,050:  -1383  71  78
1720780778,050:   -779  71  78
1720780778,050:    865  71  78
1720780778,050:   1386  71  78
1720780778,050:    145  71  78
1720780778,050:  -1120  71  78
1720780778,050:   -645  71  78
1720780778,081:    948  71  78
1720780778,081:   1517  71  78
1720780778,081:    240  71  78
1720780778,081:  -1236  71  78
1720780778,081:   -976  71  78
1720780778,081:    636  71  78
1720780778,081:   1463  71  78
1720780778,081:    444  71  78
1720780778,081:   -990  71  78
1720780778,081:   -843  71  78
1720780778,081:    708  71  78
1720780778,081:   1586  71  78
1720780778,081:    566  71  78
1720780778,081:  -1053  71  78
1720780778,081:  -1146  71  78
1720780778,112:    372  71  78
1720780778,112:   1484  71  78
1720780778,112:    756  71  78
1720780778,112:   -763  71  78
1720780778,112:   -956  71  78
1720780778,112:    458  71  78
1720780778,112:   1572  71  78
1720780778,112:    839  71  78
1720780778,112:   -841  71  78
1720780778,112:  -1269  71  78
1720780778,112:     83  71  78
1720780778,112:   1406  71  78
1720780778,112:    969  71  78
1720780778,112:   -586  71  78
1720780778,112:  -1105  71  78
1720780778,112:    137  71  78
1720780778,112:   1474  71  78
1720780778,112:   1082  71  78
1720780778,112:   -585  71  78
1720780778,112:  -1342  71  78
1720780778,112:   -224  71  78
1720780778,112:   1259  71  78
1720780778,144:   1157  71  78
1720780778,144:   -339  71  78
1720780778,144:  -1150  71  78
1720780778,144:   -151  71  78
1720780778,144:   1307  71  78
1720780778,144:   1228  71  78
1720780778,144:   -377  71  78
1720780778,144:  -1422  71  78
1720780778,175:   -557  71  78
1720780778,175:   1042  71  78
1720780778,175:   1267  71  78
1720780778,175:   -135  71  78
1720780778,175:  -1218  71  78
1720780778,175:   -474  71  78
1720780778,175:   1107  71  78
1720780778,175:   1392  71  78
1720780778,175:    -72  71  78
1720780778,175:  -1386  71  78
1720780778,175:   -835  71  78
1720780778,175:    816  71  78
1720780778,175:   1385  71  78
1720780778,175:    161  71  78
1720780778,175:  -1148  71  78
1720780778,206:   -721  71  78
1720780778,206:    883  71  78
1720780778,206:   1504  71  78
1720780778,206:    245  71  78
1720780778,206:  -1276  71  78
1720780778,206:  -1070  71  78
1720780778,206:    555  71  78
1720780778,206:   1446  71  78
1720780778,206:    462  71  78
1720780778,206:  -1012  71  78
1720780778,206:   -931  71  78
1720780778,206:    610  71  78
1720780778,206:   1534  71  78
1720780778,206:    545  71  78
1720780778,206:  -1105  71  78
1720780778,206:  -1251  71  78
1720780778,206:    261  71  78
1720780778,206:   1415  71  78
1720780778,206:    708  71  78
1720780778,206:   -854  71  78
1720780778,206:  -1100  71  78
1720780778,206:    332  71  78
1720780778,238:   1527  71  78
1720780778,238:    845  71  78
1720780778,238:   -875  71  78
1720780778,238:  -1377  71  78
1720780778,238:    -34  71  78
1720780778,238:   1361  71  78
1720780778,238:    986  71  78
1720780778,238:   -594  71  78
1720780778,238:  -1183  71  78
1720780778,238:     45  71  78
1720780778,238:   1440  71  78
1720780778,238:   1099  71  78
1720780778,238:   -605  71  78
1720780778,238:  -1445  71  78
1720780778,238:   -347  71  78
1720780778,269:   1210  71  78
1720780778,269:   1181  71  78
1720780778,269:   -347  71  78
1720780778,269:  -1263  71  78
1720780778,269:   -308  71  78
1720780778,269:   1229  71  78
1720780778,269:   1262  71  78
1720780778,269:   -322  71  78
1720780778,269:  -1448  71  78
1720780778,269:   -642  71  78
1720780778,269:   1005  71  78
1720780778,269:   1322  71  78
1720780778,269:    -68  71  78
1720780778,269:  -1235  71  78
1720780778,269:   -557  71  78
1720780778,301:   1055  71  78
1720780778,301:   1396  71  78
1720780778,301:   -137  71  78
1720780778,301:  -1670  71  78
1720780778,301:  -1342  71  78
1720780778,301:    241  71  78
1720780778,301:    865  71  78
1720780778,301:   -361  71  78
1720780778,301:  -1839  71  78
1720780778,301:  -1647  71  78
1720780778,301:   -148  71  78
1720780778,301:    574  71  78
1720780778,301:   -502  71  78
1720780778,301:  -1929  71  78
1720780778,301:  -1744  71  78
1720780778,333:   -138  71  78
1720780778,333:    828  71  78
1720780778,333:    -36  71  78
1720780778,333:  -1468  71  78
1720780778,333:  -1456  71  78
1720780778,333:      5  71  78
1720780778,333:    942  71  78
1720780778,333:     38  71  78
1720780778,333:  -1568  71  78
1720780778,333:  -1762  71  78
1720780778,333:   -300  71  78
1720780778,333:    916  71  78
1720780778,333:    361  71  78
1720780778,333:  -1105  71  78
1720780778,333:  -1411  71  78
1720780778,333:   -113  71  78
1720780778,333:   1034  71  78
1720780778,333:    439  71  78
1720780778,333:  -1180  71  78
1720780778,333:  -1693  71  78
1720780778,333:   -434  71  78
1720780778,333:    946  71  78
1720780778,333:    679  71  78
1720780778,364:   -790  71  78
1720780778,364:  -1403  71  78
1720780778,364:   -299  71  78
1720780778,364:   1040  71  78
1720780778,364:    795  71  78
1720780778,364:   -764  71  78
1720780778,364:  -1579  71  78
1720780778,396:   -579  71  78
1720780778,396:    911  71  78
1720780778,396:    965  71  78
1720780778,396:   -402  71  78
1720780778,396:  -1255  71  78
1720780778,396:   -377  71  78
1720780778,396:   1080  71  78
1720780778,396:   1168  71  78
1720780778,396:   -269  71  78
1720780778,396:  -1323  71  78
1720780778,396:   -591  71  78
1720780778,396:    959  71  78
1720780778,396:   1307  71  78
1720780778,396:     51  71  78
1720780778,396:  -1059  71  78
1720780778,396:   -499  71  78
1720780778,396:    961  71  78
1720780778,396:   1328  71  78
1720780778,396:     39  71  78
1720780778,396:  -1223  71  78
1720780778,396:   -785  71  78
1720780778,396:    773  71  78
1720780778,396:   1420  71  78
1720780778,428:    356  71  78
1720780778,428:   -926  71  78
1720780778,428:   -658  71  78
1720780778,428:    791  71  78
1720780778,428:   1454  71  78
1720780778,428:    379  71  78
1720780778,428:  -1050  71  78
1720780778,459:   -945  71  78
1720780778,459:    545  71  78
1720780778,459:   1476  71  78
1720780778,459:    684  71  78
1720780778,459:   -674  71  78
1720780778,459:   -686  71  78
1720780778,459:    696  71  78
1720780778,459:   1620  71  78
1720780778,459:    802  71  78
1720780778,459:   -726  71  78
1720780778,459:   -955  71  78
1720780778,459:    393  71  78
1720780778,459:   1536  71  78
1720780778,459:   1000  71  78
1720780778,459:   -435  71  78
1720780778,459:   -779  71  78
1720780778,459:    438  71  78
1720780778,459:   1561  71  78
1720780778,459:   1027  71  78
1720780778,459:   -539  71  78
1720780778,459:  -1098  71  78
1720780778,459:     48  71  78
1720780778,459:   1360  71  78
1720780778,491:   1122  71  78
1720780778,491:   -294  71  78
1720780778,491:   -923  71  78
1720780778,491:    106  71  78
1720780778,491:   1404  71  78
1720780778,491:   1193  71  78
1720780778,491:   -322  71  78
1720780778,491:  -1165  71  78
1720780778,491:   -256  71  78
1720780778,491:   1176  71  78
1720780778,491:   1251  71  78
1720780778,491:    -67  71  78
1720780778,491:   -919  71  78
1720780778,491:    -82  71  78
1720780778,491:   1372  71  78
1720780778,523:   1525  71  78
1720780778,523:    138  71  78
1720780778,523:  -1001  71  78
1720780778,523:   -506  71  78
1720780778,523:    743  71  78
1720780778,523:    806  71  78
1720780778,523:   -739  71  78
1720780778,523:  -2183  71  78
1720780778,523:  -1936  71  78
1720780778,523:   -619  71  78
1720780778,523:   -118  71  78
1720780778,523:  -1017  71  78
1720780778,523:  -1690  71  78
1720780778,523:   -416  71  78
1720780778,523:   2358  71  78
1720780778,554:   4640  71  78
1720780778,554:   5453  71  78
1720780778,554:   6009  71  78
1720780778,554:   7916  71  78
1720780778,554:  10848  71  78
1720780778,554:  12924  71  78
1720780778,554:  13118  71  78
1720780778,554:  12572  71  78
1720780778,554:  12982  71  78
1720780778,554:  14220  71  78
1720780778,554:  14503  71  78
1720780778,554:  12749  71  78
1720780778,554:  10022  71  78
1720780778,554:   8122  71  78
1720780778,554:   7201  71  78
1720780778,554:   5757  71  78
1720780778,554:   2877  71  78
1720780778,554:   -286  71  78
1720780778,554:  -1847  71  78
1720780778,554:  -1667  71  78
1720780778,554:  -1477  71  78
1720780778,554:  -2558  71  78
1720780778,585:  -4019  67  74
1720780778,585:  -4017  67  74
1720780778,585:  -2380  67  74
1720780778,585:  -1016  67  74
1720780778,585:  -1548  67  74
1720780778,585:  -3259  67  74
1720780778,585:  -3992  67  74
1720780778,585:  -2998  67  74
1720780778,617:  -1831  67  74
1720780778,617:  -2228  67  74
1720780778,617:  -3800  67  74
1720780778,617:  -4526  67  74
1720780778,617:  -3485  67  74
1720780778,617:  -2072  67  74
1720780778,617:  -2122  67  74
1720780778,617:  -3486  67  74
1720780778,617:  -4196  67  74
1720780778,617:  -3162  67  74
1720780778,617:  -1644  67  74
1720780778,617:  -1574  67  74
1720780778,617:  -2986  67  74
1720780778,617:  -3928  67  74
1720780778,617:  -3069  67  74
1720780778,617:  -1483  67  74
1720780778,617:  -1180  67  74
1720780778,617:  -2460  67  74
1720780778,617:  -3481  67  74
1720780778,617:  -2762  67  74
1720780778,617:  -1182  67  74
1720780778,617:   -774  67  74
1720780778,648:  -2014  67  74
1720780778,648:  -3154  67  74
1720780778,648:  -2557  67  74
1720780778,648:   -931  67  74
1720780778,648:   -355  67  74
1720780778,648:  -1546  67  74
1720780778,648:  -2863  67  74
1720780778,648:  -2497  67  74
1720780778,648:   -901  67  74
1720780778,648:   -134  67  74
1720780778,648:  -1127  67  74
1720780778,648:  -2432  67  74
1720780778,648:  -2172  67  74
1720780778,648:   -610  67  74
1720780778,648:    229  67  74
1720780778,680:   -760  67  74
1720780778,680:  -2250  67  74
1720780778,680:  -2235  67  74
1720780778,680:   -732  67  74
1720780778,680:    292  67  74
1720780778,680:   -456  67  74
1720780778,680:  -1869  67  74
1720780778,680:  -1925  67  74
1720780778,680:   -464  67  74
1720780778,680:    615  67  74
1720780778,680:   -121  67  74
1720780778,680:  -1700  67  74
1720780778,680:  -2005  67  74
1720780778,680:   -627  67  74
1720780778,680:    627  67  74
1720780778,711:    154  67  74
1720780778,711:  -1317  67  74
1720780778,711:  -1698  67  74
1720780778,711:   -406  67  74
1720780778,711:    861  67  74
1720780778,711:    400  67  74
1720780778,711:  -1214  67  74
1720780778,711:  -1834  67  74
1720780778,711:   -641  67  74
1720780778,711:    789  67  74
1720780778,711:    603  67  74
1720780778,711:   -877  67  74
1720780778,711:  -1568  67  74
1720780778,711:   -471  67  74
1720780778,711:    982  67  74
1720780778,742:    855  67  74
1720780778,742:   -723  67  74
1720780778,742:  -1660  67  74
1720780778,742:   -721  67  74
1720780778,742:    844  67  74
1720780778,742:    999  67  74
1720780778,742:   -382  67  74
1720780778,742:  -1339  67  74
1720780778,742:   -495  67  74
1720780778,742:   1060  67  74
1720780778,742:   1251  67  74
1720780778,742:   -230  67  74
1720780778,742:  -1439  67  74
1720780778,742:   -779  67  74
1720780778,742:    868  67  74
1720780778,742:   1353  67  74
1720780778,742:    105  67  74
1720780778,742:  -1102  67  74
1720780778,742:   -552  67  74
1720780778,742:   1063  67  74
1720780778,773:   1596  67  74
1720780778,773:    288  67  74
1720780778,773:  -1157  67  74
1720780778,773:   -837  67  74
1720780778,773:    799  67  74
1720780778,773:   1592  67  74
1720780778,773:    543  67  74
1720780778,773:   -855  67  74
1720780778,773:   -624  67  74
1720780778,773:    982  67  74
1720780778,773:   1843  67  74
1720780778,773:    782  67  74
1720780778,773:   -825  67  74
1720780778,773:   -852  67  74
1720780778,773:    710  67  74
1720780778,805:   1793  67  74
1720780778,805:   1004  67  74
1720780778,805:   -514  67  74
1720780778,805:   -625  67  74
1720780778,805:    871  67  74
1720780778,805:   1981  67  74
1720780778,805:   1178  67  74
1720780778,805:   -537  67  74
1720780778,805:   -917  67  74
1720780778,805:    492  67  74
1720780778,805:   1786  67  74
1720780778,805:   1244  67  74
1720780778,805:   -383  67  74
1720780778,805:   -872  67  74
1720780778,805:    432  67  74
1720780778,836:   1743  67  74
1720780778,836:   1224  67  74
1720780778,836:   -558  67  74
1720780778,836:  -1322  67  74
1720780778,836:   -150  67  74
1720780778,836:   1328  67  74
1720780778,836:   1126  67  74
1720780778,867:   -463  67  74
1720780778,867:  -1264  67  74
1720780778,867:   -189  67  74
1720780778,867:   1284  67  74
1720780778,867:   1113  67  74
1720780778,867:   -592  67  74
1720780778,867:  -1638  67  74
1720780778,867:   -703  67  74
1720780778,867:    919  67  74
1720780778,867:   1071  67  74
1720780778,867:   -410  67  74
1720780778,867:  -1472  67  74
1720780778,867:   -635  67  74
1720780778,867:    988  67  74
1720780778,867:   1211  67  74
1720780778,867:   -333  67  74
1720780778,867:  -1631  67  74
1720780778,867:   -988  67  74
1720780778,867:    710  67  74
1720780778,867:   1219  67  74
1720780778,867:    -93  67  74
1720780778,867:  -1399  67  74
1720780778,867:   -883  67  74
1720780778,898:    779  67  74
1720780778,898:   1360  67  74
1720780778,898:     26  67  74
1720780778,898:  -1494  67  74
1720780778,898:  -1205  67  74
1720780778,898:    483  67  74
1720780778,898:   1347  67  74
1720780778,898:    302  67  74
1720780778,898:  -1166  67  74
1720780778,898:  -1009  67  74
1720780778,898:    575  67  74
1720780778,898:   1450  67  74
1720780778,898:    382  67  74
1720780778,898:  -1267  67  74
1720780778,898:  -1328  67  74
1720780778,930:    246  67  74
1720780778,930:   1364  67  74
1720780778,930:    578  67  74
1720780778,930:   -996  67  74
1720780778,930:  -1173  67  74
1720780778,930:    312  67  74
1720780778,930:   1468  67  74
1720780778,930:    709  67  74
1720780778,930:  -1014  67  74
1720780778,930:  -1425  67  74
1720780778,930:     -1  67  74
1720780778,930:   1372  67  74
1720780778,930:    916  67  74
1720780778,930:   -691  67  74
1720780778,930:  -1215  67  74
1720780778,962:     75  67  74
1720780778,962:   1441  67  74
1720780778,962:   1011  67  74
1720780778,962:   -718  67  74
1720780778,962:  -1475  67  74
1720780778,962:   -278  67  74
1720780778,962:   1282  67  74
1720780778,962:   1174  67  74
1720780778,962:   -390  67  74
1720780778,962:  -1238  67  74
1720780778,962:   -197  67  74
1720780778,962:   1329  67  74
1720780778,962:   1266  67  74
1720780778,962:   -371  67  74
1720780778,962:  -1430  67  74
1720780778,962:   -524  67  74
1720780778,962:   1131  67  74
1720780778,962:   1365  67  74
1720780778,962:    -73  67  74
1720780778,962:  -1180  67  74
1720780778,962:   -416  67  74
1720780778,962:   1196  67  74
1720780778,993:   1473  67  74
1720780778,993:    -31  67  74
1720780778,993:  -1363  67  74
1720780778,993:   -781  67  74
1720780778,993:    924  67  74
1720780778,993:   1518  67  74
1720780778,993:    277  67  74
1720780778,993:  -1055  67  74
1720780778,993:   -633  67  74
1720780778,993:    970  67  74
1720780778,993:   1573  67  74
1720780778,993:    285  67  74
1720780778,993:  -1244  67  74
1720780778,993:  -1016  67  74
1720780778,993:    627  67  74
1720780779,025:   1503  67  74
1720780779,025:    484  67  74
1720780779,025:  -1004  67  74
1720780779,025:   -899  67  74
1720780779,025:    671  67  74
1720780779,025:   1589  67  74
1720780779,025:    562  67  74
1720780779,025:  -1113  67  74
1720780779,057:  -1249  67  74
1720780779,057:    287  67  74
1720780779,057:   1443  67  74
1720780779,057:    715  67  74
1720780779,057:   -856  67  74
1720780779,057:  -1082  67  74
1720780779,057:    372  67  74
1720780779,057:   1553  67  74
1720780779,057:    829  67  74
1720780779,057:   -915  67  74
1720780779,057:  -1395  67  74
1720780779,057:    -13  67  74
1720780779,057:   1386  67  74
1720780779,057:    975  67  74
1720780779,057:   -636  67  74
1720780779,057:  -1206  67  74
1720780779,057:     73  67  74
1720780779,057:   1503  67  74
1720780779,057:   1150  67  74
1720780779,057:   -580  67  74
1720780779,057:  -1415  67  74
1720780779,057:   -286  67  74
1720780779,089:   1281  67  74
1720780779,089:   1224  67  74
1720780779,089:   -326  67  74
1720780779,089:  -1215  67  74
1720780779,089:   -203  67  74
1720780779,089:   1355  67  74
1720780779,089:   1344  67  74
1720780779,089:   -299  67  74
1720780779,089:  -1430  67  74
1720780779,089:   -577  67  74
1720780779,089:   1105  67  74
1720780779,089:   1410  67  74
1720780779,089:     -7  67  74
1720780779,089:  -1164  67  74
1720780779,089:   -447  67  74
1720780779,120:   1193  67  74
1720780779,120:   1547  67  74
1720780779,120:     78  67  74
1720780779,120:  -1301  67  74
1720780779,120:   -785  67  74
1720780779,120:    905  67  74
1720780779,120:   1530  67  74
1720780779,120:    300  67  74
1720780779,120:  -1069  67  74
1720780779,120:   -675  67  74
1720780779,120:    968  67  74
1720780779,120:   1650  67  74
1720780779,120:    396  67  74
1720780779,120:  -1181  67  74
1720780779,120:  -1013  67  74
1720780779,151:    643  67  74
1720780779,151:   1594  67  74
1720780779,151:    619  67  74
1720780779,151:   -910  67  74
1720780779,151:   -871  67  74
1720780779,151:    695  67  74
1720780779,151:   1678  67  74
1720780779,151:    699  67  74
1720780779,151:  -1011  67  74
1720780779,151:  -1210  67  74
1720780779,151:    330  67  74
1720780779,151:   1565  67  74
1720780779,151:    895  67  74
1720780779,151:   -713  67  74
1720780779,151:  -1024  67  74
1720780779,183:    408  67  74
1720780779,183:   1662  67  74
1720780779,183:   1021  67  74
1720780779,183:   -727  67  74
1720780779,183:  -1282  67  74
1720780779,183:     59  67  74
1720780779,183:   1499  67  74
1720780779,183:   1154  67  74
1720780779,183:   -457  67  74
1720780779,183:  -1096  67  74
1720780779,183:    128  67  74
1720780779,183:   1565  67  74
1720780779,183:   1248  67  74
1720780779,183:   -486  67  74
1720780779,183:  -1370  67  74
1720780779,215:   -268  67  74
1720780779,215:   1334  67  74
1720780779,215:   1328  67  74
1720780779,215:   -225  67  74
1720780779,215:  -1170  67  74
1720780779,215:   -195  67  74
1720780779,215:   1389  67  74
1720780779,215:   1432  67  74
1720780779,215:   -208  67  74
1720780779,215:  -1398  67  74
1720780779,215:   -606  67  74
1720780779,215:   1074  67  74
1720780779,215:   1415  67  74
1720780779,215:      5  67  74
1720780779,215:  -1198  67  74
1720780779,215:   -526  67  74
1720780779,215:   1125  67  74
1720780779,215:   1530  67  74
1720780779,215:     84  67  74
1720780779,215:  -1329  67  74
1720780779,215:   -856  67  74
1720780779,215:    849  67  74
1720780779,215:   1542  67  74
1720780779,246:    362  67  74
1720780779,246:  -1028  67  74
1720780779,246:   -697  67  74
1720780779,246:    910  67  74
1720780779,246:   1610  67  74
1720780779,246:    384  67  74
1720780779,246:  -1204  67  74
1720780779,246:  -1080  67  74
1720780779,246:    554  67  74
1720780779,246:   1531  67  74
1720780779,246:    592  67  74
1720780779,246:   -935  67  74
1720780779,246:   -923  67  74
1720780779,246:    642  67  74
1720780779,246:   1670  67  74
1720780779,279:    741  67  74
1720780779,279:   -972  67  74
1720780779,279:  -1223  67  74
1720780779,279:    278  67  74
1720780779,279:   1529  67  74
1720780779,279:    901  67  74
1720780779,279:   -706  67  74
1720780779,279:  -1071  67  74
1720780779,279:    310  67  74
1720780779,279:   1570  67  74
1720780779,279:    975  67  74
1720780779,279:   -752  67  74
1720780779,279:  -1338  67  74
1720780779,279:    -36  67  74
1720780779,279:   1411  67  74
1720780779,309:   1111  67  74
1720780779,309:   -474  67  74
1720780779,309:  -1146  67  74
1720780779,309:     23  67  74
1720780779,309:   1445  67  74
1720780779,309:   1163  67  74
1720780779,309:   -538  67  74
1720780779,309:  -1434  67  74
1720780779,309:   -364  67  74
1720780779,309:   1244  67  74
1720780779,309:   1294  67  74
1720780779,309:   -209  67  74
1720780779,309:  -1168  67  74
1720780779,309:   -246  67  74
1720780779,309:   1324  67  74
1720780779,340:   1418  67  74
1720780779,340:   -160  67  74
1720780779,340:  -1345  67  74
1720780779,340:   -592  67  74
1720780779,340:   1073  67  74
1720780779,340:   1461  67  74
1720780779,340:    112  67  74
1720780779,371:  -1081  67  74
1720780779,371:   -449  67  74
1720780779,371:   1174  67  74
1720780779,371:   1604  67  74
1720780779,371:    194  67  74
1720780779,371:  -1232  67  74
1720780779,371:   -817  67  74
1720780779,371:    843  67  74
1720780779,371:   1547  67  74
1720780779,371:    405  67  74
1720780779,371:   -979  67  74
1720780779,371:   -679  67  74
1720780779,371:    907  67  74
1720780779,371:   1634  67  74
1720780779,371:    458  67  74
1720780779,371:  -1117  67  74
1720780779,371:  -1033  67  74
1720780779,371:    544  67  74
1720780779,371:   1499  67  74
1720780779,371:    584  67  74
1720780779,371:   -917  67  74
1720780779,371:   -915  67  74
1720780779,371:    608  67  74
1720780779,402:   1602  67  74
1720780779,402:    677  67  74
1720780779,402:  -1010  67  74
1720780779,402:  -1249  67  74
1720780779,402:    237  67  74
1720780779,402:   1460  67  74
1720780779,402:    817  67  74
1720780779,402:   -782  67  74
1720780779,402:  -1120  67  74
1720780779,402:    297  67  74
1720780779,402:   1600  67  74
1720780779,402:   1056  67  74
1720780779,402:   -621  67  74
1720780779,402:  -1169  67  74
1720780779,402:    129  67  74
1720780779,434:   1490  67  74
1720780779,434:    999  67  74
1720780779,434:   -874  67  74
1720780779,434:  -1893  67  74
1720780779,434:  -1081  67  74
1720780779,434:     21  67  74
1720780779,434:   -486  67  74
1720780779,434:  -2241  67  74
1720780779,434:  -2947  67  74
1720780779,434:  -1396  67  74
1720780779,434:   1001  67  74
1720780779,434:   2173  67  74
1720780779,434:   2144  67  74
1720780779,434:   2960  67  74
1720780779,434:   5787  67  74
1720780779,434:   9180  67  74
1720780779,434:  10912  67  74
1720780779,434:  10834  67  74
1720780779,434:  11062  67  74
1720780779,434:  13046  67  74
1720780779,434:  15521  67  74
1720780779,434:  16127  67  74
1720780779,465:  14448  67  70
1720780779,465:  12518  67  70
1720780779,465:  12031  67  70
1720780779,465:  12015  67  70
1720780779,465:  10218  67  70
1720780779,465:   6245  67  70
1720780779,465:   2387  67  70
1720780779,465:    837  67  70
1720780779,496:    966  67  70
1720780779,496:    338  67  70
1720780779,496:  -2014  67  70
1720780779,496:  -4276  67  70
1720780779,496:  -4266  67  70
1720780779,496:  -2416  67  70
1720780779,496:  -1217  67  70
1720780779,496:  -2073  67  70
1720780779,496:  -3597  67  70
1720780779,496:  -3609  67  70
1720780779,496:  -2143  67  70
1720780779,496:  -1309  67  70
1720780779,496:  -2411  67  70
1720780779,496:  -4150  67  70
1720780779,496:  -4350  67  70
1720780779,526:  -2926  67  70
1720780779,526:  -1947  67  70
1720780779,526:  -2842  67  70
1720780779,526:  -4448  67  70
1720780779,526:  -4522  67  70
1720780779,526:  -2800  67  70
1720780779,526:  -1358  67  70
1720780779,526:  -1893  67  70
1720780779,526:  -3519  67  70
1720780779,526:  -3956  67  70
1720780779,526:  -2617  67  70
1720780779,526:  -1332  67  70
1720780779,526:  -1846  67  70
1720780779,526:  -3458  67  70
1720780779,526:  -3898  67  70
1720780779,526:  -2422  67  70
1720780779,526:   -813  67  70
1720780779,526:  -1027  67  70
1720780779,526:  -2626  67  70
1720780779,526:  -3351  67  70
1720780779,526:  -2174  67  70
1720780779,526:   -651  67  70
1720780779,558:   -797  67  70
1720780779,558:  -2405  67  70
1720780779,558:  -3259  67  70
1720780779,558:  -2133  67  70
1720780779,558:   -424  67  70
1720780779,558:   -277  67  70
1720780779,558:  -1756  67  70
1720780779,558:  -2753  67  70
1720780779,558:  -1840  67  70
1720780779,558:   -194  67  70
1720780779,558:     18  67  70
1720780779,558:  -1491  67  70
1720780779,558:  -2679  67  70
1720780779,558:  -1923  67  70
1720780779,558:   -184  67  70
1720780779,590:    311  67  70
1720780779,590:   -990  67  70
1720780779,590:  -2229  67  70
1720780779,590:  -1649  67  70
1720780779,590:      9  67  70
1720780779,590:    551  67  70
1720780779,590:   -767  67  70
1720780779,590:  -2188  67  70
1720780779,590:  -1804  67  70
1720780779,590:   -112  67  70
1720780779,590:    696  67  70
1720780779,590:   -363  67  70
1720780779,590:  -1764  67  70
1720780779,590:  -1536  67  70
1720780779,590:     38  67  70
1720780779,622:    853  67  70
1720780779,622:   -216  67  70
1720780779,622:  -1764  67  70
1720780779,622:  -1711  67  70
1720780779,622:   -114  67  70
1720780779,622:    951  67  70
1720780779,622:    142  67  70
1720780779,622:  -1373  67  70
1720780779,622:  -1478  67  70
1720780779,622:     -3  67  70
1720780779,622:   1082  67  70
1720780779,622:    293  67  70
1720780779,622:  -1365  67  70
1720780779,622:  -1690  67  70
1720780779,622:   -252  67  70
1720780779,654:   1071  67  70
1720780779,654:    594  67  70
1720780779,654:   -953  67  70
1720780779,654:  -1398  67  70
1720780779,654:   -100  67  70
1720780779,654:   1211  67  70
1720780779,654:    756  67  70
1720780779,654:   -914  67  70
1720780779,654:  -1583  67  70
1720780779,654:   -368  67  70
1720780779,654:   1134  67  70
1720780779,654:    985  67  70
1720780779,654:   -533  67  70
1720780779,654:  -1282  67  70
1720780779,654:   -191  67  70
1720780779,686:   1303  67  70
1720780779,686:   1190  67  70
1720780779,686:   -435  67  70
1720780779,686:  -1425  67  70
1720780779,686:   -476  67  70
1720780779,686:   1151  67  70
1720780779,686:   1332  67  70
1720780779,686:   -108  67  70
1720780779,686:  -1154  67  70
1720780779,686:   -333  67  70
1720780779,686:   1280  67  70
1720780779,686:   1529  67  70
1720780779,686:     34  67  70
1720780779,686:  -1239  67  70
1720780779,686:   -609  67  70
1720780779,717:   1075  67  70
1720780779,717:   1611  67  70
1720780779,717:    361  67  70
1720780779,717:   -899  67  70
1720780779,717:   -385  67  70
1720780779,717:   1251  67  70
1720780779,717:   1829  67  70
1720780779,717:    533  67  70
1720780779,717:   -942  67  70
1720780779,717:   -646  67  70
1720780779,717:   1007  67  70
1720780779,717:   1835  67  70
1720780779,717:    784  67  70
1720780779,717:   -670  67  70
1720780779,717:   -512  67  70
1720780779,717:   1048  67  70
1720780779,717:   1891  67  70
1720780779,717:    802  67  70
1720780779,717:   -864  67  70
1720780779,717:   -961  67  70
1720780779,717:    557  67  70
1720780779,747:   1626  67  70
1720780779,747:    818  67  70
1720780779,747:   -759  67  70
1720780779,747:   -951  67  70
1720780779,747:    490  67  70
1720780779,747:   1593  67  70
1720780779,747:    800  67  70
1720780779,779:   -933  67  70
1720780779,779:  -1359  67  70
1720780779,779:     26  67  70
1720780779,779:   1353  67  70
1720780779,779:    867  67  70
1720780779,779:   -739  67  70
1720780779,779:  -1253  67  70
1720780779,779:     36  67  70
1720780779,779:   1393  67  70
1720780779,779:    959  67  70
1720780779,779:   -770  67  70
1720780779,779:  -1537  67  70
1720780779,779:   -370  67  70
1720780779,779:   1155  67  70
1720780779,779:   1036  67  70
1720780779,779:   -512  67  70
1720780779,779:  -1342  67  70
1720780779,779:   -304  67  70
1720780779,779:   1207  67  70
1720780779,779:   1146  67  70
1720780779,779:   -468  67  70
1720780779,779:  -1506  67  70
1720780779,810:   -603  67  70
1720780779,810:   1033  67  70
1720780779,810:   1266  67  70
1720780779,810:   -142  67  70
1720780779,810:  -1215  67  70
1720780779,810:   -453  67  70
1720780779,810:   1122  67  70
1720780779,810:   1372  67  70
1720780779,810:   -118  67  70
1720780779,810:  -1411  67  70
1720780779,810:   -814  67  70
1720780779,810:    859  67  70
1720780779,810:   1408  67  70
1720780779,810:    159  67  70
1720780779,810:  -1134  67  70
1720780779,842:   -663  67  70
1720780779,842:    963  67  70
1720780779,842:   1564  67  70
1720780779,842:    279  67  70
1720780779,842:  -1231  67  70
1720780779,842:   -986  67  70
1720780779,842:    655  67  70
1720780779,842:   1521  67  70
1720780779,842:    502  67  70
1720780779,842:   -970  67  70
1720780779,842:   -850  67  70
1720780779,842:    713  67  70
1720780779,842:   1612  67  70
1720780779,842:    579  67  70
1720780779,842:  -1080  67  70
1720780779,842:  -1191  67  70
1720780779,842:    360  67  70
1720780779,842:   1515  67  70
1720780779,842:    777  67  70
1720780779,842:   -801  67  70
1720780779,842:  -1026  67  70
1720780779,842:    436  67  70
1720780779,842:   1628  67  70
1720780779,873:    914  67  70
1720780779,873:   -823  67  70
1720780779,873:  -1305  67  70
1720780779,873:     64  67  70
1720780779,873:   1445  67  70
1720780779,873:   1025  67  70
1720780779,873:   -579  67  70
1720780779,873:  -1137  67  70
1720780779,873:    140  67  70
1720780779,873:   1544  67  70
1720780779,873:   1160  67  70
1720780779,873:   -577  67  70
1720780779,873:  -1392  67  70
1720780779,873:   -243  67  70
1720780779,873:   1322  67  70
1720780779,904:   1248  67  70
1720780779,904:   -308  67  70
1720780779,904:  -1181  67  70
1720780779,904:   -154  67  70
1720780779,904:   1395  67  70
1720780779,904:   1364  67  70
1720780779,904:   -280  67  70
1720780779,936:  -1386  67  70
1720780779,936:   -520  67  70
1720780779,936:   1134  67  70
1720780779,936:   1388  67  70
1720780779,936:    -53  67  70
1720780779,936:  -1186  67  70
1720780779,936:   -438  67  70
1720780779,936:   1195  67  70
1720780779,936:   1508  67  70
1720780779,936:     11  67  70
1720780779,936:  -1350  67  70
1720780779,936:   -801  67  70
1720780779,936:    893  67  70
1720780779,936:   1496  67  70
1720780779,936:    258  67  70
1720780779,936:  -1083  67  70
1720780779,936:   -664  67  70
1720780779,936:    955  67  70
1720780779,936:   1581  67  70
1720780779,936:    299  67  70
1720780779,936:  -1246  67  70
1720780779,936:  -1031  67  70
1720780779,936:    625  67  70
1720780779,967:   1530  67  70
1720780779,967:    529  67  70
1720780779,967:   -968  67  70
1720780779,967:   -879  67  70
1720780779,967:    695  67  70
1720780779,967:   1641  67  70
1720780779,967:    638  67  70
1720780779,967:  -1041  67  70
1720780779,967:  -1193  67  70
1720780779,967:    347  67  70
1720780779,967:   1531  67  70
1720780779,967:    818  67  70
1720780779,967:   -784  67  70
1720780779,967:  -1069  67  70
1720780779,967:    354  67  70
1720780779,998:   1566  67  70
1720780779,998:    899  67  70
1720780779,998:   -824  67  70
1720780779,998:  -1336  67  70
1720780779,998:     11  67  70
1720780779,998:   1425  67  70
1720780779,998:   1068  67  70
1720780779,998:   -514  67  70
1720780779,998:  -1123  67  70
1720780779,998:     82  67  70
1720780779,998:   1464  67  70
1720780779,998:   1118  67  70
1720780779,998:   -585  67  70
1720780779,998:  -1420  67  70
1720780779,998:   -311  67  70
1720780780,029:   1259  67  70
1720780780,029:   1243  67  70
1720780780,029:   -269  67  70
1720780780,029:  -1172  67  70
1720780780,029:   -215  67  70
1720780780,029:   1313  67  70
1720780780,029:   1337  67  70
1720780780,029:   -239  67  70
1720780780,029:  -1343  67  70
1720780780,029:   -525  67  70
1720780780,029:   1108  67  70
1720780780,029:   1405  67  70
1720780780,029:     18  67  70
1720780780,029:  -1126  67  70
1720780780,029:   -440  67  70
1720780780,060:   1155  67  70
1720780780,060:   1500  67  70
1720780780,060:     56  67  70
1720780780,060:  -1303  67  70
1720780780,060:   -796  67  70
1720780780,060:    888  67  70
1720780780,060:   1542  67  70
1720780780,060:    364  67  70
1720780780,060:   -985  67  70
1720780780,060:   -630  67  70
1720780780,060:    957  67  70
1720780780,060:   1634  67  70
1720780780,060:    432  67  70
1720780780,060:  -1099  67  70
1720780780,060:   -948  67  70
1720780780,091:    649  67  70
1720780780,091:   1573  67  70
1720780780,091:    637  67  70
1720780780,091:   -840  67  70
1720780780,091:   -809  67  70
1720780780,091:    700  67  70
1720780780,091:   1651  67  70
1720780780,091:    716  67  70
1720780780,091:   -920  67  70
1720780780,091:  -1102  67  70
1720780780,091:    388  67  70
1720780780,091:   1581  67  70
1720780780,091:    938  67  70
1720780780,091:   -612  67  70
1720780780,091:   -919  67  70
1720780780,123:    448  67  70
1720780780,123:   1643  67  70
1720780780,123:   1013  67  70
1720780780,123:   -681  67  70
1720780780,123:  -1222  67  70
1720780780,123:     71  67  70
1720780780,123:   1468  67  70
1720780780,123:   1144  67  70
1720780780,123:   -408  67  70
1720780780,123:  -1033  67  70
1720780780,123:    147  67  70
1720780780,123:   1551  67  70
1720780780,123:   1273  67  70
1720780780,123:   -383  67  70
1720780780,123:  -1239  67  70
1720780780,154:   -188  67  70
1720780780,154:   1357  67  70
1720780780,154:   1367  67  70
1720780780,154:   -116  67  70
1720780780,154:  -1033  67  70
1720780780,154:   -113  67  70
1720780780,154:   1401  67  70
1720780780,154:   1450  67  70
1720780780,154:   -109  67  70
1720780780,154:  -1239  67  70
1720780780,154:   -463  67  70
1720780780,154:   1171  67  70
1720780780,154:   1521  67  70
1720780780,154:    181  67  70
1720780780,154:   -976  67  70
1720780780,154:   -344  67  70
1720780780,154:   1227  67  70
1720780780,154:   1607  67  70
1720780780,154:    213  67  70
1720780780,154:  -1150  67  70
1720780780,154:   -701  67  70
