timestamp: ADC HeartRate4sAverage HeartRate30sAverage
1720557491,150:      0  80  78
1720557491,150:     12  80  78
1720557491,150:     -2  80  78
1720557491,150:    -23  80  78
1720557491,150:    -22  80  78
1720557491,150:     -1  80  78
1720557491,150:     14  80  78
1720557491,150:      7  80  78
1720557491,150:     -8  80  78
1720557491,150:     -8  80  78
1720557491,150:     10  80  78
1720557491,150:     25  80  78
1720557491,150:     21  80  78
1720557491,150:     13  80  78
1720557491,150:     21  80  78
1720557491,181:     45  80  78
1720557491,181:     59  80  78
1720557491,181:     46  80  78
1720557491,181:     21  80  78
1720557491,181:     12  80  78
1720557491,181:     26  80  78
1720557491,181:     43  80  78
1720557491,181:     45  80  78
1720557491,181:     40  80  78
1720557491,181:     49  80  78
1720557491,181:     75  80  78
1720557491,181:     96  80  78
1720557491,181:     91  80  78
1720557491,181:     74  80  78
1720557491,181:     70  80  78
1720557491,211:     87  80  78
1720557491,211:    103  80  78
1720557491,211:     93  80  78
1720557491,211:     64  80  78
1720557491,211:     45  80  78
1720557491,211:     54  80  78
1720557491,211:     77  80  78
1720557491,211:     88  80  78
1720557491,211:     86  80  78
1720557491,211:     97  80  78
1720557491,211:    135  80  78
1720557491,211:    186  80  78
1720557491,211:    220  80  78
1720557491,211:    232  80  78
1720557491,211:    244  80  78
1720557491,241:    272  80  78
1720557491,241:    297  80  78
1720557491,241:    286  80  78
1720557491,241:    235  80  78
1720557491,241:    181  80  78
1720557491,241:    158  80  78
1720557491,241:    164  80  78
1720557491,241:    165  80  78
1720557491,241:    143  80  78
1720557491,241:    115  80  78
1720557491,241:    106  80  78
1720557491,241:    113  80  78
1720557491,241:    105  80  78
1720557491,241:     69  80  78
1720557491,241:     25  80  78
1720557491,241:      1  80  78
1720557491,241:     -3  80  78
1720557491,241:    -15  80  78
1720557491,241:    -47  80  78
1720557491,241:    -76  80  78
1720557491,241:    -76  80  78
1720557491,241:    -51  80  78
1720557491,272:    -36  80  78
1720557491,272:    -50  80  78
1720557491,272:    -76  80  78
1720557491,272:    -79  80  78
1720557491,272:    -58  80  78
1720557491,272:    -40  80  78
1720557491,272:    -45  80  78
1720557491,272:    -60  80  78
1720557491,272:    -58  80  78
1720557491,272:    -38  80  78
1720557491,272:    -25  80  78
1720557491,272:    -42  80  78
1720557491,272:    -72  80  78
1720557491,272:    -82  80  78
1720557491,272:    -62  80  78
1720557491,303:    -37  80  78
1720557491,303:    -32  80  78
1720557491,303:    -46  80  78
1720557491,303:    -49  80  78
1720557491,303:    -28  80  78
1720557491,303:     -1  80  78
1720557491,303:      2  80  78
1720557491,303:    -19  80  78
1720557491,333:    -36  80  78
1720557491,333:    -30  80  78
1720557491,333:    -12  80  78
1720557491,333:     -7  80  78
1720557491,333:    -20  80  78
1720557491,333:    -26  80  78
1720557491,333:     -7  80  78
1720557491,333:     22  80  78
1720557491,333:     33  80  78
1720557491,333:     25  80  78
1720557491,333:     29  80  78
1720557491,333:     71  80  78
1720557491,333:    128  80  78
1720557491,333:    143  80  78
1720557491,333:     89  80  78
1720557491,333:     12  80  78
1720557491,333:    -17  80  78
1720557491,333:      4  80  78
1720557491,333:     -3  80  78
1720557491,333:   -108  80  78
1720557491,333:   -276  80  78
1720557491,333:   -368  80  78
1720557491,363:   -272  80  78
1720557491,363:     -6  80  78
1720557491,363:    342  80  78
1720557491,363:    792  80  78
1720557491,363:   1519  80  78
1720557491,363:   2657  80  78
1720557491,363:   4059  80  78
1720557491,363:   5329  80  78
1720557491,363:   6171  80  78
1720557491,363:   6660  80  78
1720557491,363:   7088  80  78
1720557491,363:   7525  80  78
1720557491,363:   7613  80  78
1720557491,363:   6887  80  78
1720557491,363:   5314  80  78
1720557491,394:   3413  80  79
1720557491,394:   1820  80  79
1720557491,394:    757  80  79
1720557491,394:    -25  80  79
1720557491,394:   -838  80  79
1720557491,394:  -1675  80  79
1720557491,394:  -2250  80  79
1720557491,394:  -2332  80  79
1720557491,394:  -1979  80  79
1720557491,394:  -1461  80  79
1720557491,394:  -1030  80  79
1720557491,394:   -797  80  79
1720557491,394:   -741  80  79
1720557491,394:   -788  80  79
1720557491,394:   -861  80  79
1720557491,426:   -903  80  79
1720557491,426:   -907  80  79
1720557491,426:   -903  80  79
1720557491,426:   -917  80  79
1720557491,426:   -946  80  79
1720557491,426:   -964  80  79
1720557491,426:   -960  80  79
1720557491,426:   -953  80  79
1720557491,426:   -954  80  79
1720557491,426:   -956  80  79
1720557491,426:   -950  80  79
1720557491,426:   -948  80  79
1720557491,426:   -966  80  79
1720557491,426:   -994  80  79
1720557491,426:   -995  80  79
1720557491,456:   -946  80  79
1720557491,456:   -865  80  79
1720557491,456:   -792  80  79
1720557491,456:   -752  80  79
1720557491,456:   -727  80  79
1720557491,456:   -697  80  79
1720557491,456:   -670  80  79
1720557491,456:   -669  80  79
1720557491,456:   -692  80  79
1720557491,456:   -701  80  79
1720557491,456:   -665  80  79
1720557491,456:   -596  80  79
1720557491,456:   -537  80  79
1720557491,456:   -517  80  79
1720557491,456:   -515  80  79
1720557491,487:   -499  80  79
1720557491,487:   -468  80  79
1720557491,487:   -446  80  79
1720557491,487:   -446  80  79
1720557491,487:   -446  80  79
1720557491,487:   -415  80  79
1720557491,487:   -360  80  79
1720557491,487:   -316  80  79
1720557491,487:   -308  80  79
1720557491,487:   -317  80  79
1720557491,487:   -308  80  79
1720557491,487:   -273  80  79
1720557491,487:   -239  80  79
1720557491,487:   -228  80  79
1720557491,487:   -228  80  79
1720557491,519:   -212  80  79
1720557491,519:   -174  80  79
1720557491,519:   -142  80  79
1720557491,519:   -138  80  79
1720557491,519:   -148  80  79
1720557491,519:   -141  80  79
1720557491,519:   -108  80  79
1720557491,519:    -79  80  79
1720557491,519:    -75  80  79
1720557491,519:    -85  80  79
1720557491,519:    -73  80  79
1720557491,519:    -30  80  79
1720557491,519:     12  80  79
1720557491,519:     18  80  79
1720557491,519:     -2  80  79
1720557491,550:     -9  80  79
1720557491,550:     19  80  79
1720557491,550:     59  80  79
1720557491,550:     76  80  79
1720557491,550:     68  80  79
1720557491,550:     67  80  79
1720557491,550:     93  80  79
1720557491,550:    123  80  79
1720557491,550:    126  80  79
1720557491,550:    102  80  79
1720557491,550:     88  80  79
1720557491,550:    106  80  79
1720557491,550:    135  80  79
1720557491,550:    139  80  79
1720557491,550:    117  80  79
1720557491,580:    103  80  79
1720557491,580:    123  80  79
1720557491,580:    158  80  79
1720557491,580:    168  80  79
1720557491,580:    144  80  79
1720557491,580:    118  80  79
1720557491,580:    122  80  79
1720557491,580:    145  80  79
1720557491,580:    153  80  79
1720557491,580:    135  80  79
1720557491,580:    115  80  79
1720557491,580:    119  80  79
1720557491,580:    135  80  79
1720557491,580:    129  80  79
1720557491,580:     92  80  79
1720557491,611:     55  80  79
1720557491,611:     49  80  79
1720557491,611:     68  80  79
1720557491,611:     76  80  79
1720557491,611:     59  80  79
1720557491,611:     38  80  79
1720557491,611:     43  80  79
1720557491,611:     70  80  79
1720557491,611:     88  80  79
1720557491,611:     75  80  79
1720557491,611:     51  80  79
1720557491,611:     44  80  79
1720557491,611:     58  80  79
1720557491,611:     69  80  79
1720557491,611:     58  80  79
1720557491,643:     38  80  79
1720557491,643:     35  80  79
1720557491,643:     50  80  79
1720557491,643:     52  80  79
1720557491,643:     21  80  79
1720557491,643:    -28  80  79
1720557491,643:    -58  80  79
1720557491,643:    -59  80  79
1720557491,643:    -55  80  79
1720557491,643:    -79  80  79
1720557491,643:   -125  80  79
1720557491,643:   -160  80  79
1720557491,643:   -170  80  79
1720557491,643:   -172  80  79
1720557491,643:   -195  80  79
1720557491,643:   -238  80  79
1720557491,643:   -270  80  79
1720557491,643:   -278  80  79
1720557491,643:   -275  80  79
1720557491,643:   -286  80  79
1720557491,643:   -308  80  79
1720557491,643:   -317  80  79
1720557491,643:   -303  80  79
1720557491,675:   -287  80  79
1720557491,675:   -293  80  79
1720557491,675:   -316  80  79
1720557491,675:   -327  80  79
1720557491,675:   -308  80  79
1720557491,675:   -278  80  79
1720557491,675:   -267  80  79
1720557491,675:   -274  80  79
1720557491,675:   -274  80  79
1720557491,675:   -251  80  79
1720557491,675:   -223  80  79
1720557491,675:   -220  80  79
1720557491,675:   -241  80  79
1720557491,675:   -256  80  79
1720557491,675:   -243  80  79
1720557491,706:   -216  80  79
1720557491,706:   -202  80  79
1720557491,706:   -207  80  79
1720557491,706:   -207  80  79
1720557491,706:   -183  80  79
1720557491,706:   -147  80  79
1720557491,706:   -128  80  79
1720557491,706:   -134  80  79
1720557491,706:   -144  80  79
1720557491,706:   -134  80  79
1720557491,706:   -108  80  79
1720557491,706:    -90  80  79
1720557491,706:    -94  80  79
1720557491,706:   -101  80  79
1720557491,706:    -93  80  79
1720557491,737:    -70  80  79
1720557491,737:    -58  80  79
1720557491,737:    -71  80  79
1720557491,737:    -91  80  79
1720557491,737:    -92  80  79
1720557491,737:    -70  80  79
1720557491,737:    -50  80  79
1720557491,737:    -52  80  79
1720557491,737:    -64  80  79
1720557491,737:    -61  80  79
1720557491,737:    -37  80  79
1720557491,737:    -17  80  79
1720557491,737:    -23  80  79
1720557491,737:    -46  80  79
1720557491,737:    -53  80  79
1720557491,769:    -35  80  79
1720557491,769:    -15  80  79
1720557491,769:    -18  80  79
1720557491,769:    -35  80  79
1720557491,769:    -38  80  79
1720557491,769:    -18  80  79
1720557491,769:      1  80  79
1720557491,769:     -8  80  79
1720557491,769:    -38  80  79
1720557491,769:    -53  80  79
1720557491,769:    -40  80  79
1720557491,769:    -18  80  79
1720557491,769:    -15  80  79
1720557491,769:    -30  80  79
1720557491,769:    -36  80  79
1720557491,800:    -19  80  79
1720557491,800:     -1  80  79
1720557491,800:     -4  80  79
1720557491,800:    -27  80  79
1720557491,800:    -42  80  79
1720557491,800:    -33  80  79
1720557491,800:    -16  80  79
1720557491,800:    -16  80  79
1720557491,800:    -34  80  79
1720557491,800:    -48  80  79
1720557491,800:    -40  80  79
1720557491,800:    -23  80  79
1720557491,800:    -23  80  79
1720557491,800:    -44  80  79
1720557491,800:    -64  80  79
1720557491,830:    -62  80  79
1720557491,830:    -46  80  79
1720557491,830:    -39  80  79
1720557491,830:    -48  80  79
1720557491,830:    -52  80  79
1720557491,830:    -34  80  79
1720557491,830:     -5  80  79
1720557491,830:      4  80  79
1720557491,830:    -21  80  79
1720557491,830:    -54  80  79
1720557491,830:    -58  80  79
1720557491,830:    -33  80  79
1720557491,830:    -11  80  79
1720557491,830:    -17  80  79
1720557491,830:    -37  80  79
1720557491,860:    -40  80  79
1720557491,860:    -19  80  79
1720557491,860:      0  80  79
1720557491,860:     -8  80  79
1720557491,860:    -29  80  79
1720557491,860:    -34  80  79
1720557491,860:    -15  80  79
1720557491,860:      1  80  79
1720557491,860:     -7  80  79
1720557491,860:    -27  80  79
1720557491,860:    -26  80  79
1720557491,860:      1  80  79
1720557491,860:     24  80  79
1720557491,860:     13  80  79
1720557491,860:    -20  80  79
1720557491,860:    -38  80  79
1720557491,860:    -24  80  79
1720557491,860:     -1  80  79
1720557491,860:      1  80  79
1720557491,860:    -17  80  79
1720557491,860:    -24  80  79
1720557491,860:     -7  80  79
1720557491,891:     12  80  79
1720557491,891:      7  80  79
1720557491,891:    -18  80  79
1720557491,891:    -30  80  79
1720557491,891:    -14  80  79
1720557491,891:      9  80  79
1720557491,891:      9  80  79
1720557491,891:     -8  80  79
1720557491,921:    -14  80  79
1720557491,921:      5  80  79
1720557491,921:     24  80  79
1720557491,921:     14  80  79
1720557491,921:    -20  80  79
1720557491,921:    -41  80  79
1720557491,921:    -29  80  79
1720557491,921:     -6  80  79
1720557491,921:     -5  80  79
1720557491,921:    -28  80  79
1720557491,921:    -39  80  79
1720557491,921:    -16  80  79
1720557491,921:     24  80  79
1720557491,921:     42  80  79
1720557491,921:     27  80  79
1720557491,952:      8  80  79
1720557491,952:     16  80  79
1720557491,952:     45  80  79
1720557491,952:     63  80  79
1720557491,952:     56  80  79
1720557491,952:     39  80  79
1720557491,952:     38  80  79
1720557491,952:     49  80  79
1720557491,952:     47  80  79
1720557491,952:     19  80  79
1720557491,952:    -14  80  79
1720557491,952:    -24  80  79
1720557491,952:     -6  80  79
1720557491,952:     19  80  79
1720557491,952:     34  80  79
1720557491,952:     51  80  79
1720557491,952:     86  80  79
1720557491,952:    138  80  79
1720557491,952:    177  80  79
1720557491,952:    188  80  79
1720557491,952:    185  80  79
1720557491,952:    193  80  79
1720557491,984:    215  80  79
1720557491,984:    224  80  79
1720557491,984:    198  80  79
1720557491,984:    154  80  79
1720557491,984:    126  80  79
1720557491,984:    124  80  79
1720557491,984:    125  80  79
1720557491,984:    101  80  79
1720557491,984:     62  80  79
1720557491,984:     38  80  79
1720557491,984:     38  80  79
1720557491,984:     40  80  79
1720557491,984:     19  80  79
1720557491,984:    -20  80  79
1720557491,984:    -43  80  79
1720557492,016:    -42  80  79
1720557492,016:    -41  80  79
1720557492,016:    -69  80  79
1720557492,016:   -114  80  79
1720557492,016:   -139  80  79
1720557492,016:   -122  80  79
1720557492,016:    -88  80  79
1720557492,016:    -73  80  79
1720557492,016:    -83  80  79
1720557492,016:    -85  80  79
1720557492,016:    -60  80  79
1720557492,016:    -28  80  79
1720557492,016:    -22  80  79
1720557492,016:    -45  80  79
1720557492,016:    -66  80  79
1720557492,048:    -60  80  79
1720557492,048:    -39  80  79
1720557492,048:    -32  80  79
1720557492,048:    -46  80  79
1720557492,048:    -55  80  79
1720557492,048:    -38  80  79
1720557492,048:     -9  80  79
1720557492,048:     -1  80  79
1720557492,048:    -20  80  79
1720557492,048:    -40  80  79
1720557492,048:    -31  80  79
1720557492,048:     -4  80  79
1720557492,048:      7  80  79
1720557492,048:    -11  80  79
1720557492,048:    -35  80  79
1720557492,078:    -30  80  79
1720557492,078:      1  80  79
1720557492,078:     19  80  79
1720557492,078:      1  80  79
1720557492,078:    -28  80  79
1720557492,078:    -28  80  79
1720557492,078:      6  80  79
1720557492,078:     41  80  79
1720557492,078:     53  80  79
1720557492,078:     62  80  79
1720557492,078:    101  80  79
1720557492,078:    159  80  79
1720557492,078:    173  80  79
1720557492,078:    106  80  79
1720557492,078:      5  80  79
1720557492,078:    -42  80  79
1720557492,078:    -24  80  79
1720557492,078:    -27  80  79
1720557492,078:   -130  80  79
1720557492,078:   -292  80  79
1720557492,108:   -357  80  79
1720557492,108:   -215  80  79
1720557492,108:     92  80  79
1720557492,108:    467  80  79
1720557492,108:    953  80  79
1720557492,108:   1745  80  79
1720557492,108:   2935  80  79
1720557492,140:   4299  80  79
1720557492,140:   5425  80  79
1720557492,140:   6104  80  79
1720557492,140:   6513  80  79
1720557492,140:   6935  80  79
1720557492,140:   7307  80  79
1720557492,140:   7177  80  79
1720557492,140:   6173  80  79
1720557492,140:   4468  80  79
1720557492,140:   2692  80  79
1720557492,140:   1366  80  79
1720557492,140:    497  80  79
1720557492,140:   -255  80  79
1720557492,140:  -1094  80  79
1720557492,140:  -1862  80  79
1720557492,140:  -2252  80  79
1720557492,140:  -2156  80  79
1720557492,140:  -1751  80  79
1720557492,140:  -1303  80  79
1720557492,140:   -975  80  79
1720557492,140:   -802  80  79
1720557492,140:   -759  80  79
1720557492,140:   -799  80  79
1720557492,172:   -856  81  80
1720557492,172:   -873  81  80
1720557492,172:   -850  81  80
1720557492,172:   -834  81  80
1720557492,172:   -864  81  80
1720557492,172:   -921  81  80
1720557492,172:   -950  81  80
1720557492,172:   -934  81  80
1720557492,172:   -907  81  80
1720557492,172:   -903  81  80
1720557492,172:   -921  81  80
1720557492,172:   -940  81  80
1720557492,172:   -947  81  80
1720557492,172:   -952  81  80
1720557492,172:   -961  81  80
1720557492,203:   -954  81  80
1720557492,203:   -908  81  80
1720557492,203:   -827  81  80
1720557492,203:   -747  81  80
1720557492,203:   -700  81  80
1720557492,203:   -681  81  80
1720557492,203:   -663  81  80
1720557492,203:   -639  81  80
1720557492,203:   -629  81  80
1720557492,203:   -645  81  80
1720557492,203:   -664  81  80
1720557492,203:   -647  81  80
1720557492,203:   -587  81  80
1720557492,203:   -520  81  80
1720557492,203:   -488  81  80
1720557492,234:   -486  81  80
1720557492,234:   -481  81  80
1720557492,234:   -455  81  80
1720557492,234:   -431  81  80
1720557492,234:   -436  81  80
1720557492,234:   -458  81  80
1720557492,234:   -456  81  80
1720557492,234:   -413  81  80
1720557492,234:   -358  81  80
1720557492,234:   -333  81  80
1720557492,234:   -338  81  80
1720557492,234:   -337  81  80
1720557492,234:   -306  81  80
1720557492,234:   -266  81  80
1720557492,234:   -255  81  80
1720557492,264:   -273  81  80
1720557492,264:   -281  81  80
1720557492,264:   -253  81  80
1720557492,264:   -209  81  80
1720557492,264:   -186  81  80
1720557492,264:   -189  81  80
1720557492,264:   -185  81  80
1720557492,264:   -150  81  80
1720557492,264:   -102  81  80
1720557492,264:    -81  81  80
1720557492,264:    -93  81  80
1720557492,264:   -106  81  80
1720557492,264:    -88  81  80
1720557492,264:    -50  81  80
1720557492,264:    -29  81  80
1720557492,295:    -38  81  80
1720557492,295:    -49  81  80
1720557492,295:    -30  81  80
1720557492,295:     10  81  80
1720557492,295:     35  81  80
1720557492,295:     27  81  80
1720557492,295:     11  81  80
1720557492,295:     19  81  80
1720557492,295:     53  81  80
1720557492,295:     80  81  80
1720557492,295:     81  81  80
1720557492,295:     73  81  80
1720557492,295:     85  81  80
1720557492,295:    117  81  80
1720557492,295:    141  81  80
1720557492,295:    137  81  80
1720557492,295:    121  81  80
1720557492,295:    124  81  80
1720557492,295:    149  81  80
1720557492,295:    170  81  80
1720557492,295:    168  81  80
1720557492,295:    157  81  80
1720557492,327:    165  81  80
1720557492,327:    194  81  80
1720557492,327:    212  81  80
1720557492,327:    196  81  80
1720557492,327:    158  81  80
1720557492,327:    134  81  80
1720557492,327:    141  81  80
1720557492,327:    156  81  80
1720557492,327:    149  81  80
1720557492,327:    121  81  80
1720557492,327:    100  81  80
1720557492,327:    104  81  80
1720557492,327:    119  81  80
1720557492,327:    116  81  80
1720557492,327:     94  81  80
1720557492,357:     77  81  80
1720557492,357:     85  81  80
1720557492,357:    106  81  80
1720557492,357:    113  81  80
1720557492,357:    101  81  80
1720557492,357:     93  81  80
1720557492,357:    106  81  80
1720557492,357:    127  81  80
1720557492,387:    125  81  80
1720557492,387:     96  81  80
1720557492,387:     65  81  80
1720557492,387:     57  81  80
1720557492,387:     61  81  80
1720557492,387:     50  81  80
1720557492,387:     16  81  80
1720557492,387:    -16  81  80
1720557492,387:    -28  81  80
1720557492,387:    -32  81  80
1720557492,387:    -61  81  80
1720557492,387:   -115  81  80
1720557492,387:   -161  81  80
1720557492,387:   -172  81  80
1720557492,387:   -164  81  80
1720557492,387:   -173  81  80
1720557492,387:   -207  81  80
1720557492,387:   -237  81  80
1720557492,387:   -235  81  80
1720557492,387:   -214  81  80
1720557492,387:   -212  81  80
1720557492,387:   -244  81  80
1720557492,419:   -278  81  80
1720557492,419:   -278  81  80
1720557492,419:   -251  81  80
1720557492,419:   -233  81  80
1720557492,419:   -246  81  80
1720557492,419:   -267  81  80
1720557492,419:   -262  81  80
1720557492,419:   -229  81  80
1720557492,419:   -204  81  80
1720557492,419:   -210  81  80
1720557492,419:   -235  81  80
1720557492,419:   -242  81  80
1720557492,419:   -221  81  80
1720557492,419:   -195  81  80
1720557492,419:   -189  81  80
1720557492,450:   -196  81  80
1720557492,450:   -191  81  80
1720557492,450:   -167  81  80
1720557492,450:   -147  81  80
1720557492,450:   -153  81  80
1720557492,450:   -173  81  80
1720557492,450:   -176  81  80
1720557492,450:   -151  81  80
1720557492,450:   -122  81  80
1720557492,450:   -119  81  80
1720557492,450:   -135  81  80
1720557492,450:   -140  81  80
1720557492,450:   -118  81  80
1720557492,450:    -91  81  80
1720557492,450:    -87  81  80
1720557492,481:   -105  81  80
1720557492,481:   -115  81  80
1720557492,481:    -99  81  80
1720557492,481:    -73  81  80
1720557492,481:    -64  81  80
1720557492,481:    -75  81  80
1720557492,481:    -79  81  80
1720557492,481:    -58  81  80
1720557492,481:    -29  81  80
1720557492,481:    -21  81  80
1720557492,481:    -40  81  80
1720557492,481:    -59  81  80
1720557492,481:    -52  81  80
1720557492,481:    -29  81  80
1720557492,481:    -17  81  80
1720557492,513:    -25  81  80
1720557492,513:    -33  81  80
1720557492,513:    -22  81  80
1720557492,513:      0  81  80
1720557492,513:      3  81  80
1720557492,513:    -20  81  80
1720557492,513:    -43  81  80
1720557492,513:    -40  81  80
1720557492,513:    -19  81  80
1720557492,513:     -9  81  80
1720557492,513:    -27  81  80
1720557492,513:    -48  81  80
1720557492,513:    -45  81  80
1720557492,513:    -20  81  80
1720557492,513:     -5  81  80
1720557492,544:    -20  81  80
1720557492,544:    -46  81  80
1720557492,544:    -53  81  80
1720557492,544:    -37  81  80
1720557492,544:    -25  81  80
1720557492,544:    -34  81  80
1720557492,544:    -50  81  80
1720557492,544:    -46  81  80
1720557492,544:    -23  81  80
1720557492,544:    -11  81  80
1720557492,544:    -28  81  80
1720557492,544:    -57  81  80
1720557492,544:    -63  81  80
1720557492,544:    -41  81  80
1720557492,544:    -22  81  80
1720557492,575:    -28  81  80
1720557492,575:    -49  81  80
1720557492,575:    -51  81  80
1720557492,575:    -28  81  80
1720557492,575:     -9  81  80
1720557492,575:    -22  81  80
1720557492,575:    -57  81  80
1720557492,575:    -74  81  80
1720557492,575:    -57  81  80
1720557492,575:    -29  81  80
1720557492,575:    -24  81  80
1720557492,575:    -41  81  80
1720557492,575:    -50  81  80
1720557492,575:    -33  81  80
1720557492,575:     -8  81  80
1720557492,606:     -7  81  80
1720557492,606:    -33  81  80
1720557492,606:    -53  81  80
1720557492,606:    -46  81  80
1720557492,606:    -24  81  80
1720557492,606:    -12  81  80
1720557492,606:    -20  81  80
1720557492,606:    -22  81  80
1720557492,606:     -1  81  80
1720557492,606:     30  81  80
1720557492,606:     40  81  80
1720557492,606:     19  81  80
1720557492,606:     -7  81  80
1720557492,606:    -12  81  80
1720557492,606:      1  81  80
1720557492,638:      9  81  80
1720557492,638:     -3  81  80
1720557492,638:    -17  81  80
1720557492,638:     -8  81  80
1720557492,638:     17  81  80
1720557492,638:     32  81  80
1720557492,638:     21  81  80
1720557492,638:      2  81  80
1720557492,638:      4  81  80
1720557492,638:     28  81  80
1720557492,638:     43  81  80
1720557492,638:     28  81  80
1720557492,638:      5  81  80
1720557492,638:      6  81  80
1720557492,638:     29  81  80
1720557492,670:     42  81  80
1720557492,670:     19  81  80
1720557492,670:    -18  81  80
1720557492,670:    -30  81  80
1720557492,670:    -12  81  80
1720557492,670:      4  81  80
1720557492,670:     -3  81  80
1720557492,670:    -13  81  80
1720557492,670:      8  81  80
1720557492,670:     55  81  80
1720557492,670:     86  81  80
1720557492,670:     72  81  80
1720557492,670:     39  81  80
1720557492,670:     34  81  80
1720557492,670:     63  81  80
1720557492,670:     89  81  80
1720557492,670:     80  81  80
1720557492,670:     55  81  80
1720557492,670:     56  81  80
1720557492,670:     90  81  80
1720557492,670:    119  81  80
1720557492,670:    105  81  80
1720557492,670:     61  81  80
1720557492,701:     32  81  80
1720557492,701:     36  81  80
1720557492,701:     50  81  80
1720557492,701:     47  81  80
1720557492,701:     40  81  80
1720557492,701:     65  81  80
1720557492,701:    129  81  80
1720557492,701:    196  81  80
1720557492,701:    222  81  80
1720557492,701:    215  81  80
1720557492,701:    213  81  80
1720557492,701:    235  81  80
1720557492,701:    255  81  80
1720557492,701:    239  81  80
1720557492,701:    196  81  80
1720557492,733:    175  81  80
1720557492,733:    197  81  80
1720557492,733:    226  81  80
1720557492,733:    210  81  80
1720557492,733:    149  81  80
1720557492,733:     97  81  80
1720557492,733:     88  81  80
1720557492,733:     98  81  80
1720557492,733:     75  81  80
1720557492,733:     17  81  80
1720557492,733:    -23  81  80
1720557492,733:     -9  81  80
1720557492,733:     27  81  80
1720557492,733:     17  81  80
1720557492,733:    -57  81  80
1720557492,764:   -136  81  80
1720557492,764:   -155  81  80
1720557492,764:   -123  81  80
1720557492,764:   -107  81  80
1720557492,764:   -138  81  80
1720557492,764:   -171  81  80
1720557492,764:   -146  81  80
1720557492,764:    -72  81  80
1720557492,764:    -24  81  80
1720557492,764:    -51  81  80
1720557492,764:   -114  81  80
1720557492,764:   -136  81  80
1720557492,764:   -104  81  80
1720557492,764:    -77  81  80
1720557492,764:   -100  81  80
1720557492,794:   -140  81  80
1720557492,794:   -128  81  80
1720557492,794:    -57  81  80
1720557492,794:      6  81  80
1720557492,794:     -2  81  80
1720557492,794:    -52  81  80
1720557492,794:    -72  81  80
1720557492,794:    -33  81  80
1720557492,794:     12  81  80
1720557492,794:      5  81  80
1720557492,794:    -40  81  80
1720557492,794:    -59  81  80
1720557492,794:    -22  81  80
1720557492,794:     27  81  80
1720557492,794:     25  81  80
1720557492,824:    -29  81  80
1720557492,824:    -72  81  80
1720557492,824:    -59  81  80
1720557492,824:    -15  81  80
1720557492,824:      4  81  80
1720557492,824:     -9  81  80
1720557492,824:     -6  81  80
1720557492,824:     47  81  80
1720557492,824:    115  81  80
1720557492,824:    122  81  80
1720557492,824:     49  81  80
1720557492,824:    -39  81  80
1720557492,824:    -63  81  80
1720557492,824:    -28  81  80
1720557492,824:    -19  81  80
1720557492,855:    -95  81  80
1720557492,855:   -211  81  80
1720557492,855:   -256  81  80
1720557492,855:   -158  81  80
1720557492,855:     53  81  80
1720557492,855:    319  81  80
1720557492,855:    687  81  80
1720557492,855:   1314  81  80
1720557492,855:   2303  81  80
1720557492,855:   3520  81  80
1720557492,855:   4632  81  80
1720557492,855:   5385  81  80
1720557492,855:   5820  81  80
1720557492,855:   6176  81  80
1720557492,855:   6531  81  80
1720557493,056:   6609  81  80
1720557493,056:   6013  81  80
1720557493,056:   4669  81  80
1720557493,056:   2979  81  80
1720557493,056:   1502  81  80
1720557493,056:    487  81  80
1720557493,056:   -229  81  80
1720557493,056:   -925  81  80
1720557493,056:  -1651  81  80
1720557493,056:  -2197  81  80
1720557493,056:  -2348  81  80
1720557493,056:  -2089  81  80
1720557493,056:  -1613  81  80
1720557493,056:  -1155  81  80
1720557493,056:   -867  81  80
1720557493,056:   -776  81  80
1720557493,056:   -803  81  80
1720557493,056:   -842  81  80
1720557493,056:   -829  81  80
1720557493,056:   -785  81  80
1720557493,056:   -763  81  80
1720557493,056:   -774  81  80
1720557493,056:   -779  81  80
1720557493,056:   -748  81  80
1720557493,056:   -703  81  80
1720557493,056:   -691  81  80
1720557493,056:   -715  81  80
1720557493,056:   -736  81  80
1720557493,056:   -736  81  80
1720557493,056:   -745  81  80
1720557493,056:   -796  81  80
1720557493,056:   -860  81  80
1720557493,056:   -874  81  80
1720557493,056:   -809  81  80
1720557493,056:   -703  81  80
1720557493,056:   -618  81  80
1720557493,056:   -575  81  80
1720557493,056:   -548  81  80
1720557493,056:   -515  81  80
1720557493,056:   -492  81  80
1720557493,056:   -503  81  80
1720557493,056:   -539  81  80
1720557493,056:   -554  81  80
1720557493,056:   -513  81  80
1720557493,056:   -437  81  80
1720557493,056:   -375  81  80
1720557493,056:   -352  81  80
1720557493,056:   -350  81  80
1720557493,056:   -341  81  80
1720557493,056:   -322  81  80
1720557493,056:   -316  81  80
1720557493,056:   -333  81  80
1720557493,056:   -345  81  80
1720557493,056:   -324  81  80
1720557493,056:   -271  81  80
1720557493,056:   -219  81  80
1720557493,056:   -195  81  80
1720557493,056:   -195  81  80
1720557493,056:   -195  81  80
1720557493,056:   -187  81  80
1720557493,056:   -183  81  80
1720557493,056:   -192  81  80
1720557493,056:   -198  81  80
1720557493,056:   -177  81  80
1720557493,097:   -129  81  80
1720557493,097:    -82  81  80
1720557493,097:    -63  81  80
1720557493,097:    -68  81  80
1720557493,097:    -73  81  80
1720557493,097:    -67  81  80
1720557493,097:    -61  81  80
1720557493,097:    -68  81  80
1720557493,097:    -77  81  80
1720557493,097:    -66  81  80
1720557493,097:    -32  81  80
1720557493,097:      4  81  80
1720557493,097:     22  81  80
1720557493,097:     27  81  80
1720557493,097:     38  81  80
1720557493,097:     59  81  80
1720557493,097:     72  81  80
1720557493,097:     61  81  80
1720557493,097:     38  81  80
1720557493,097:     33  81  80
1720557493,097:     57  81  80
1720557493,097:     88  81  80
1720557493,097:    100  81  80
1720557493,097:     92  81  80
1720557493,097:     88  81  80
1720557493,097:    100  81  80
1720557493,097:    116  81  80
1720557493,097:    113  81  80
1720557493,097:     95  81  80
1720557493,097:     87  81  80
1720557493,097:    102  81  80
1720557493,097:    124  81  80
1720557493,097:    129  81  80
1720557493,097:    115  81  80
1720557493,097:    109  81  80
1720557493,097:    125  81  80
1720557493,097:    149  81  80
1720557493,097:    151  81  80
1720557493,097:    127  81  80
1720557493,097:    102  81  80
1720557493,097:     97  81  80
1720557493,097:    106  81  80
1720557493,097:    103  81  80
1720557493,097:     82  81  80
1720557493,097:     65  81  80
1720557493,097:     68  81  80
1720557493,097:     82  81  80
1720557493,097:     79  81  80
1720557493,097:     51  81  80
1720557493,097:     24  81  80
1720557493,097:     23  81  80
1720557493,097:     44  81  80
1720557493,097:     52  81  80
1720557493,097:     32  81  80
1720557493,097:      7  81  80
1720557493,097:     10  81  80
1720557493,136:     39  81  80
1720557493,136:     61  81  80
1720557493,136:     48  81  80
1720557493,136:     15  81  80
1720557493,136:     -7  81  80
1720557493,136:     -6  81  80
1720557493,136:     -7  81  80
1720557493,136:    -29  81  80
1720557493,136:    -61  81  80
1720557493,136:    -78  81  80
1720557493,136:    -77  81  80
1720557493,136:    -87  81  80
1720557493,136:   -126  81  80
1720557493,136:   -176  81  80
1720557493,136:   -204  81  80
1720557493,136:   -202  81  80
1720557493,136:   -197  81  80
1720557493,136:   -215  81  80
1720557493,136:   -247  81  80
1720557493,136:   -260  81  80
1720557493,136:   -245  81  80
1720557493,136:   -227  81  80
1720557493,136:   -238  81  80
1720557493,136:   -273  81  80
1720557493,136:   -299  81  80
1720557493,136:   -297  81  80
1720557493,136:   -281  81  80
1720557493,195:   -276  81  80
1720557493,195:   -285  81  80
1720557493,195:   -281  81  80
1720557493,195:   -253  81  80
1720557493,195:   -221  81  80
1720557493,195:   -216  81  80
1720557493,195:   -238  81  80
1720557493,195:   -253  81  80
1720557493,195:   -237  81  80
1720557493,195:   -205  81  80
1720557493,195:   -193  81  80
1720557493,195:   -214  81  80
1720557493,195:   -234  81  80
1720557493,195:   -221  81  80
1720557493,195:   -183  81  80
1720557493,195:   -157  81  80
1720557493,195:   -165  81  80
1720557493,195:   -185  81  80
1720557493,195:   -183  81  80
1720557493,195:   -154  81  80
1720557493,195:   -128  81  80
1720557493,195:   -126  81  80
1720557493,195:   -133  81  80
1720557493,265:   -125  81  80
1720557493,265:   -100  81  80
1720557493,265:    -84  81  80
1720557493,265:    -94  81  80
1720557493,265:   -115  81  80
1720557493,265:   -114  81  80
1720557493,265:    -86  81  80
1720557493,265:    -58  81  80
1720557493,265:    -54  81  80
1720557493,265:    -66  81  80
1720557493,265:    -65  81  80
1720557493,265:    -44  81  80
1720557493,265:    -25  81  80
1720557493,265:    -31  81  80
1720557493,265:    -54  81  80
1720557493,265:    -64  81  80
1720557493,265:    -49  81  80
1720557493,265:    -29  81  80
1720557493,265:    -28  81  80
1720557493,265:    -40  81  80
1720557493,265:    -42  81  80
1720557493,265:    -23  81  80
1720557493,265:     -6  81  80
1720557493,265:    -17  81  80
1720557493,265:    -47  81  80
1720557493,265:    -60  81  80
1720557493,265:    -42  81  80
1720557493,265:    -19  81  80
1720557493,265:    -22  81  80
1720557493,265:    -47  81  80
1720557493,265:    -58  81  80
1720557493,265:    -36  81  80
1720557493,265:     -4  81  80
1720557493,265:      1  81  80
1720557493,265:    -25  81  80
1720557493,265:    -47  81  80
1720557493,265:    -38  81  80
1720557493,265:    -13  81  80
1720557493,265:     -2  81  80
1720557493,265:    -14  81  80
1720557493,265:    -24  81  80
1720557493,265:    -15  81  80
1720557493,265:     -1  81  80
1720557493,265:     -8  81  80
1720557493,265:    -38  81  80
1720557493,308:    -59  81  80
1720557493,308:    -49  81  80
1720557493,308:    -24  81  80
1720557493,308:    -16  81  80
1720557493,308:    -34  81  80
1720557493,308:    -52  81  80
1720557493,308:    -44  81  80
1720557493,347:    -15  81  80
1720557493,347:     -2  81  80
1720557493,347:    -19  81  80
1720557493,347:    -46  81  80
1720557493,347:    -53  81  80
1720557493,347:    -38  81  80
1720557493,347:    -25  81  80
1720557493,347:    -32  81  80
1720557493,347:    -44  81  80
1720557493,347:    -41  81  80
1720557493,347:    -24  81  80
1720557493,347:    -18  81  80
1720557493,347:    -38  81  80
1720557493,347:    -68  81  80
1720557493,347:    -74  81  80
1720557493,347:    -51  81  80
1720557493,347:    -27  81  80
1720557493,347:    -30  81  80
1720557493,347:    -49  81  80
1720557493,347:    -56  81  80
1720557493,347:    -38  81  80
1720557493,347:    -17  81  80
1720557493,347:    -18  81  80
1720557493,347:    -39  81  80
1720557493,347:    -53  81  80
1720557493,347:    -44  81  80
1720557493,347:    -30  81  80
1720557493,347:    -33  81  80
1720557493,347:    -51  81  80
1720557493,347:    -61  81  80
1720557493,387:    -51  81  80
1720557493,387:    -35  81  80
1720557493,387:    -37  81  80
1720557493,387:    -56  81  80
1720557493,387:    -70  81  80
1720557493,387:    -63  81  80
1720557493,387:    -45  81  80
1720557493,387:    -34  81  80
1720557493,387:    -34  81  80
1720557493,387:    -31  81  80
1720557493,387:    -17  81  80
1720557493,387:     -4  81  80
1720557493,387:     -7  81  80
1720557493,387:    -23  81  80
1720557493,387:    -29  81  80
1720557493,417:    -13  81  80
1720557493,417:     12  81  80
1720557493,417:     24  81  80
1720557493,417:     17  81  80
1720557493,417:     13  81  80
1720557493,417:     32  81  80
1720557493,417:     63  81  80
1720557493,417:     74  81  80
1720557493,417:     53  81  80
1720557493,417:     22  81  80
1720557493,417:     12  81  80
1720557493,417:     25  81  80
1720557493,417:     35  81  80
1720557493,417:     24  81  80
1720557493,417:     12  81  80
1720557493,417:     31  81  80
1720557493,417:     80  81  80
1720557493,417:    121  81  80
1720557493,417:    130  81  80
1720557493,417:    121  81  80
1720557493,417:    131  81  80
1720557493,417:    164  81  80
1720557493,417:    190  81  80
1720557493,449:    185  81  80
1720557493,449:    164  81  80
1720557493,449:    159  81  80
1720557493,449:    170  81  80
1720557493,449:    168  81  80
1720557493,449:    131  81  80
1720557493,449:     84  81  80
1720557493,449:     65  81  80
1720557493,449:     77  81  80
1720557493,449:     86  81  80
1720557493,449:     62  81  80
1720557493,449:     24  81  80
1720557493,449:      8  81  80
1720557493,449:     20  81  80
1720557493,449:     26  81  80
1720557493,476:     -3  81  80
1720557493,476:    -56  81  80
1720557493,476:    -91  81  80
1720557493,476:    -94  81  80
1720557493,476:    -86  81  80
1720557493,476:    -94  81  80
1720557493,476:   -112  81  80
1720557493,476:   -112  81  80
1720557493,476:    -88  81  80
1720557493,476:    -64  81  80
1720557493,476:    -67  81  80
1720557493,476:    -89  81  80
1720557493,476:    -98  81  80
1720557493,476:    -81  81  80
1720557493,476:    -59  81  80
1720557493,508:    -60  81  80
1720557493,508:    -81  81  80
1720557493,508:    -94  81  80
1720557493,508:    -83  81  80
1720557493,508:    -66  81  80
1720557493,508:    -68  81  80
1720557493,508:    -92  81  80
1720557493,540:   -106  81  80
1720557493,540:    -91  81  80
1720557493,540:    -61  81  80
1720557493,540:    -46  81  80
1720557493,540:    -52  81  80
1720557493,540:    -58  81  80
1720557493,540:    -46  81  80
1720557493,540:    -25  81  80
1720557493,540:    -23  81  80
1720557493,540:    -41  81  80
1720557493,540:    -55  81  80
1720557493,540:    -45  81  80
1720557493,540:    -21  81  80
1720557493,540:     -9  81  80
1720557493,540:    -13  81  80
1720557493,540:    -12  81  80
1720557493,540:      9  81  80
1720557493,540:     40  81  80
1720557493,540:     58  81  80
1720557493,540:     63  81  80
1720557493,540:     68  81  80
1720557493,540:     72  81  80
1720557493,540:     51  81  80
1720557493,576:     -4  81  80
1720557493,576:    -56  81  80
1720557493,576:    -72  81  80
1720557493,576:    -75  81  80
1720557493,576:   -129  81  80
1720557493,576:   -250  81  80
1720557493,576:   -347  81  80
1720557493,576:   -291  81  80
1720557493,576:    -43  81  80
1720557493,576:    325  81  80
1720557493,576:    797  81  80
1720557493,576:   1498  81  80
1720557493,576:   2560  81  80
1720557493,576:   3878  81  80
1720557493,576:   5091  81  80
1720557493,621:   5893  83  81
1720557493,621:   6334  83  81
1720557493,621:   6706  83  81
1720557493,621:   7095  83  81
1720557493,621:   7152  83  81
1720557493,621:   6415  83  81
1720557493,621:   4856  83  81
1720557493,621:   3015  83  81
1720557493,621:   1531  83  81
1720557493,621:    588  83  81
1720557493,621:   -121  83  81
1720557493,621:   -922  83  81
1720557493,621:  -1761  83  81
1720557493,621:  -2296  83  81
1720557493,621:  -2298  83  81
1720557493,621:  -1886  83  81
1720557493,621:  -1381  83  81
1720557493,621:  -1016  83  81
1720557493,621:   -827  83  81
1720557493,621:   -753  83  81
1720557493,621:   -746  83  81
1720557493,621:   -792  83  81
1720557493,651:   -858  83  81
1720557493,651:   -900  83  81
1720557493,651:   -901  83  81
1720557493,651:   -889  83  81
1720557493,651:   -901  83  81
1720557493,651:   -932  83  81
1720557493,651:   -946  83  81
1720557493,651:   -927  83  81
1720557493,651:   -894  83  81
1720557493,651:   -881  83  81
1720557493,651:   -904  83  81
1720557493,651:   -940  83  81
1720557493,651:   -957  83  81
1720557493,651:   -945  83  81
1720557493,651:   -919  83  81
1720557493,685:   -886  83  81
1720557493,685:   -833  83  81
1720557493,685:   -754  83  81
1720557493,685:   -670  83  81
1720557493,685:   -620  83  81
1720557493,685:   -620  83  81
1720557493,685:   -645  83  81
1720557493,685:   -657  83  81
1720557493,685:   -646  83  81
1720557493,685:   -627  83  81
1720557493,685:   -613  83  81
1720557493,685:   -590  83  81
1720557493,685:   -540  83  81
1720557493,685:   -476  83  81
1720557493,685:   -435  83  81
1720557493,685:   -439  83  81
1720557493,685:   -466  83  81
1720557493,685:   -474  83  81
1720557493,685:   -447  83  81
1720557493,685:   -410  83  81
1720557493,685:   -390  83  81
1720557493,685:   -384  83  81
1720557493,685:   -368  83  81
1720557493,715:   -332  83  81
1720557493,715:   -297  83  81
1720557493,715:   -290  83  81
1720557493,715:   -304  83  81
1720557493,715:   -309  83  81
1720557493,715:   -287  83  81
1720557493,715:   -253  83  81
1720557493,715:   -232  83  81
1720557493,715:   -227  83  81
1720557493,715:   -214  83  81
1720557493,715:   -183  83  81
1720557493,715:   -150  83  81
1720557493,715:   -142  83  81
1720557493,715:   -155  83  81
1720557493,715:   -158  83  81
1720557493,746:   -133  83  81
1720557493,746:    -96  83  81
1720557493,746:    -80  83  81
1720557493,746:    -86  83  81
1720557493,746:    -87  83  81
1720557493,746:    -60  83  81
1720557493,746:    -21  83  81
1720557493,746:     -5  83  81
1720557493,746:    -19  83  81
1720557493,746:    -35  83  81
1720557493,746:    -24  83  81
1720557493,746:      7  83  81
1720557493,746:     29  83  81
1720557493,746:     31  83  81
1720557493,746:     32  83  81
1720557493,775:     53  83  81
1720557493,775:     86  83  81
1720557493,775:    102  83  81
1720557493,775:     93  83  81
1720557493,775:     83  83  81
1720557493,775:     97  83  81
1720557493,775:    128  83  81
1720557493,775:    148  83  81
1720557493,775:    142  83  81
1720557493,775:    131  83  81
1720557493,775:    139  83  81
1720557493,775:    165  83  81
1720557493,775:    182  83  81
1720557493,775:    171  83  81
1720557493,775:    148  83  81
1720557493,806:    140  83  81
1720557493,806:    153  83  81
1720557493,806:    164  83  81
1720557493,806:    156  83  81
1720557493,806:    140  83  81
1720557493,806:    137  83  81
1720557493,806:    149  83  81
1720557493,806:    152  83  81
1720557493,806:    127  83  81
1720557493,806:     90  83  81
1720557493,806:     71  83  81
1720557493,806:     78  83  81
1720557493,806:     91  83  81
1720557493,806:     86  83  81
1720557493,806:     69  83  81
1720557493,837:     65  83  81
1720557493,837:     83  83  81
1720557493,837:    101  83  81
1720557493,837:     96  83  81
1720557493,837:     72  83  81
1720557493,837:     52  83  81
1720557493,837:     49  83  81
1720557493,837:     47  83  81
1720557493,837:     26  83  81
1720557493,837:    -10  83  81
1720557493,837:    -37  83  81
1720557493,837:    -46  83  81
1720557493,837:    -51  83  81
1720557493,837:    -80  83  81
1720557493,837:   -131  83  81
1720557493,837:   -176  83  81
1720557493,837:   -195  83  81
1720557493,837:   -198  83  81
1720557493,837:   -212  83  81
1720557493,837:   -246  83  81
1720557493,837:   -274  83  81
1720557493,837:   -277  83  81
1720557493,901:   -266  83  81
1720557493,901:   -274  83  81
1720557493,901:   -309  83  81
1720557493,901:   -340  83  81
1720557493,901:   -337  83  81
1720557493,901:   -309  83  81
1720557493,901:   -293  83  81
1720557493,901:   -306  83  81
1720557493,901:   -325  83  81
1720557493,901:   -315  83  81
1720557493,901:   -283  83  81
1720557493,901:   -263  83  81
1720557493,901:   -276  83  81
1720557493,901:   -296  83  81
1720557493,901:   -289  83  81
1720557493,901:   -257  83  81
1720557493,901:   -235  83  81
1720557493,901:   -239  83  81
1720557493,901:   -249  83  81
1720557493,901:   -233  83  81
1720557493,901:   -197  83  81
1720557493,901:   -179  83  81
1720557493,901:   -198  83  81
1720557493,931:   -224  83  81
1720557493,931:   -217  83  81
1720557493,931:   -176  83  81
1720557493,931:   -144  83  81
1720557493,931:   -147  83  81
1720557493,931:   -166  83  81
1720557493,931:   -162  83  81
1720557493,931:   -124  83  81
1720557493,931:    -87  83  81
1720557493,931:    -86  83  81
1720557493,931:   -109  83  81
1720557493,931:   -116  83  81
1720557493,931:    -91  83  81
1720557493,931:    -59  83  81
1720557493,931:    -53  83  81
1720557493,962:    -68  83  81
1720557493,962:    -69  83  81
1720557493,962:    -41  83  81
1720557493,962:    -11  83  81
1720557493,962:    -13  83  81
1720557493,962:    -45  83  81
1720557493,962:    -69  83  81
1720557493,962:    -59  83  81
1720557493,962:    -31  83  81
1720557493,962:    -18  83  81
1720557493,962:    -28  83  81
1720557493,962:    -34  83  81
1720557493,962:    -19  83  81
1720557493,962:      2  83  81
1720557493,962:      4  83  81
1720557493,962:    -14  83  81
1720557493,962:    -21  83  81
1720557493,962:     -3  83  81
1720557493,962:     20  83  81
1720557493,962:     18  83  81
1720557493,962:     -5  83  81
1720557493,962:    -15  83  81
1720557493,994:      6  83  81
1720557493,994:     36  83  81
1720557493,994:     37  83  81
1720557493,994:      5  83  81
1720557493,994:    -25  83  81
1720557493,994:    -24  83  81
1720557493,994:      0  83  81
1720557493,994:     11  83  81
1720557493,994:      0  83  81
1720557493,994:    -12  83  81
1720557493,994:     -2  83  81
1720557493,994:     22  83  81
1720557493,994:     31  83  81
1720557493,994:     16  83  81
1720557493,994:     -3  83  81
1720557494,024:      1  83  81
1720557494,024:     21  83  81
1720557494,024:     31  83  81
1720557494,024:     18  83  81
1720557494,024:      1  83  81
1720557494,024:      4  83  81
1720557494,024:     25  83  81
1720557494,024:     34  83  81
1720557494,024:     13  83  81
1720557494,024:    -20  83  81
1720557494,024:    -31  83  81
1720557494,024:     -9  83  81
1720557494,024:     17  83  81
1720557494,024:     18  83  81
1720557494,024:     -1  83  81
1720557494,056:     -8  83  81
1720557494,056:     15  83  81
1720557494,056:     46  83  81
1720557494,056:     48  83  81
1720557494,056:     15  83  81
1720557494,056:    -20  83  81
1720557494,056:    -25  83  81
1720557494,056:     -4  83  81
1720557494,056:      9  83  81
1720557494,056:     -4  83  81
1720557494,056:    -27  83  81
1720557494,056:    -32  83  81
1720557494,056:    -15  83  81
1720557494,056:      2  83  81
1720557494,056:     -1  83  81
1720557494,056:    -15  83  81
1720557494,056:    -22  83  81
1720557494,056:    -16  83  81
1720557494,056:     -6  83  81
1720557494,056:      0  83  81
1720557494,056:      9  83  81
1720557494,056:     26  83  81
1720557494,056:     40  83  81
1720557494,088:     36  83  81
1720557494,088:     18  83  81
1720557494,088:      9  83  81
1720557494,088:     18  83  81
1720557494,088:     32  83  81
1720557494,088:     30  83  81
1720557494,088:     13  83  81
1720557494,119:      1  83  81
1720557494,119:      5  83  81
1720557494,119:      9  83  81
1720557494,119:     -5  83  81
1720557494,119:    -24  83  81
1720557494,119:    -15  83  81
1720557494,119:     26  83  81
1720557494,119:     66  83  81
1720557494,119:     76  83  81
1720557494,119:     63  83  81
1720557494,119:     64  83  81
1720557494,119:     92  83  81
1720557494,149:    117  83  81
1720557494,149:    107  83  81
1720557494,149:     67  83  81
1720557494,149:     35  83  81
1720557494,149:     28  83  81
1720557494,149:     28  83  81
1720557494,149:     14  83  81
1720557494,149:     -3  83  81
1720557494,149:     13  83  81
1720557494,149:     68  83  81
1720557494,149:    125  83  81
1720557494,149:    143  83  81
1720557494,149:    124  83  81
1720557494,149:    115  83  81
1720557494,149:    149  83  81
1720557494,149:    207  83  81
1720557494,149:    240  83  81
1720557494,149:    228  83  81
1720557494,149:    193  83  81
1720557494,149:    169  83  81
1720557494,149:    161  83  81
1720557494,149:    151  83  81
1720557494,149:    128  83  81
1720557494,180:    105  83  81
1720557494,180:    102  83  81
1720557494,180:    109  83  81
1720557494,180:     98  83  81
1720557494,180:     54  83  81
1720557494,180:      5  83  81
1720557494,180:     -8  83  81
1720557494,180:     20  83  81
1720557494,180:     46  83  81
1720557494,180:     22  83  81
1720557494,180:    -46  83  81
1720557494,180:   -106  83  81
1720557494,180:   -113  83  81
1720557494,180:    -78  83  81
1720557494,180:    -47  83  81
1720557494,212:    -46  83  81
1720557494,212:    -53  83  81
1720557494,212:    -37  83  81
1720557494,212:     -1  83  81
1720557494,212:     19  83  81
1720557494,212:     10  83  81
1720557494,212:     -3  83  81
1720557494,212:     10  83  81
1720557494,212:     40  83  81
1720557494,212:     51  83  81
1720557494,212:     26  83  81
1720557494,212:    -10  83  81
1720557494,212:    -17  83  81
1720557494,212:      4  83  81
1720557494,212:     24  83  81
1720557494,243:     19  83  81
1720557494,243:      3  83  81
1720557494,243:      4  83  81
1720557494,243:     23  83  81
1720557494,243:     40  83  81
1720557494,243:     39  83  81
1720557494,243:     36  83  81
1720557494,243:     49  83  81
1720557494,243:     75  83  81
1720557494,243:     86  83  81
1720557494,243:     67  83  81
1720557494,243:     38  83  81
1720557494,243:     28  83  81
1720557494,243:     49  83  81
1720557494,243:     79  83  81
1720557494,274:     93  83  81
1720557494,274:     97  83  81
1720557494,274:    116  83  81
1720557494,274:    158  83  81
1720557494,274:    203  83  81
1720557494,274:    217  83  81
1720557494,274:    188  83  81
1720557494,274:    135  83  81
1720557494,274:     89  83  81
1720557494,274:     67  83  81
1720557494,274:     45  83  81
1720557494,274:    -11  83  81
1720557494,274:   -110  83  81
1720557494,274:   -217  83  81
1720557494,274:   -250  83  81
1720557494,274:   -138  83  81
1720557494,274:    129  83  81
1720557494,274:    540  83  81
1720557494,274:   1146  83  81
1720557494,274:   2053  83  81
1720557494,274:   3280  83  81
1720557494,274:   4631  83  81
1720557494,306:   5787  83  81
1720557494,306:   6568  83  81
1720557494,306:   7076  83  81
1720557494,306:   7496  83  81
1720557494,306:   7762  83  81
1720557494,306:   7512  83  81
1720557494,306:   6456  83  81
1720557494,306:   4762  83  81
1720557494,398:   2989  84  82
1720557494,398:   1620  84  82
1720557494,398:    686  84  82
1720557494,398:   -112  84  82
1720557494,398:   -975  84  82
1720557494,398:  -1768  84  82
1720557494,398:  -2192  84  82
1720557494,398:  -2119  84  82
1720557494,398:  -1715  84  82
1720557494,398:  -1277  84  82
1720557494,398:   -997  84  82
1720557494,398:   -896  84  82
1720557494,398:   -896  84  82
1720557494,398:   -920  84  82
1720557494,398:   -937  84  82
1720557494,398:   -948  84  82
1720557494,398:   -967  84  82
1720557494,398:   -991  84  82
1720557494,398:  -1014  84  82
1720557494,398:  -1030  84  82
1720557494,398:  -1038  84  82
1720557494,398:  -1043  84  82
1720557494,398:  -1048  84  82
1720557494,398:  -1046  84  82
1720557494,398:  -1042  84  82
1720557494,398:  -1054  84  82
1720557494,398:  -1087  84  82
1720557494,398:  -1115  84  82
1720557494,398:  -1103  84  82
1720557494,398:  -1044  84  82
1720557494,398:   -966  84  82
1720557494,398:   -900  84  82
1720557494,398:   -848  84  82
1720557494,398:   -796  84  82
1720557494,398:   -744  84  82
1720557494,398:   -714  84  82
1720557494,398:   -725  84  82
1720557494,398:   -755  84  82
1720557494,398:   -764  84  82
1720557494,398:   -729  84  82
1720557494,398:   -673  84  82
1720557494,398:   -631  84  82
1720557494,398:   -609  84  82
1720557494,398:   -588  84  82
1720557494,398:   -555  84  82
1720557494,429:   -525  84  82
1720557494,429:   -522  84  82
1720557494,429:   -539  84  82
1720557494,429:   -542  84  82
1720557494,429:   -510  84  82
1720557494,429:   -462  84  82
1720557494,429:   -431  84  82
1720557494,429:   -425  84  82
1720557494,429:   -415  84  82
1720557494,429:   -383  84  82
1720557494,429:   -343  84  82
1720557494,429:   -325  84  82
1720557494,429:   -331  84  82
1720557494,429:   -335  84  82
1720557494,429:   -312  84  82
1720557494,429:   -278  84  82
1720557494,429:   -260  84  82
1720557494,429:   -264  84  82
1720557494,429:   -265  84  82
1720557494,429:   -246  84  82
1720557494,429:   -225  84  82
1720557494,429:   -227  84  82
1720557494,462:   -251  84  82
1720557494,462:   -264  84  82
1720557494,462:   -243  84  82
1720557494,462:   -201  84  82
1720557494,462:   -170  84  82
1720557494,462:   -163  84  82
1720557494,462:   -157  84  82
1720557494,462:   -128  84  82
1720557494,462:    -80  84  82
1720557494,462:    -39  84  82
1720557494,462:    -25  84  82
1720557494,462:    -30  84  82
1720557494,462:    -32  84  82
1720557494,462:    -15  84  82
1720557494,462:     14  84  82
1720557494,492:     44  84  82
1720557494,492:     63  84  82
1720557494,492:     76  84  82
1720557494,492:     86  84  82
1720557494,492:     97  84  82
1720557494,492:    104  84  82
1720557494,492:    108  84  82
1720557494,492:    110  84  82
1720557494,492:    114  84  82
1720557494,492:    117  84  82
1720557494,492:    113  84  82
1720557494,492:    106  84  82
1720557494,492:    107  84  82
1720557494,492:    120  84  82
1720557494,492:    134  84  82
1720557494,522:    133  84  82
1720557494,522:    117  84  82
1720557494,522:    104  84  82
1720557494,522:    105  84  82
1720557494,522:    112  84  82
1720557494,522:    107  84  82
1720557494,522:     89  84  82
1720557494,522:     76  84  82
1720557494,522:     80  84  82
1720557494,522:     88  84  82
1720557494,522:     79  84  82
1720557494,522:     52  84  82
1720557494,522:     30  84  82
1720557494,522:     30  84  82
1720557494,522:     47  84  82
1720557494,560:     56  84  82
1720557494,560:     51  84  82
1720557494,560:     47  84  82
1720557494,560:     59  84  82
1720557494,560:     75  84  82
1720557494,560:     74  84  82
1720557494,560:     53  84  82
1720557494,560:     33  84  82
1720557494,560:     32  84  82
1720557494,560:     39  84  82
1720557494,560:     30  84  82
1720557494,560:     -7  84  82
1720557494,560:    -52  84  82
1720557494,560:    -81  84  82
1720557494,560:    -96  84  82
1720557494,560:   -118  84  82
1720557494,560:   -161  84  82
1720557494,560:   -210  84  82
1720557494,560:   -239  84  82
1720557494,560:   -245  84  82
1720557494,560:   -244  84  82
1720557494,560:   -253  84  82
1720557494,560:   -265  84  82
1720557494,647:   -262  84  82
1720557494,647:   -243  84  82
1720557494,647:   -232  84  82
1720557494,647:   -245  84  82
1720557494,647:   -274  84  82
1720557494,647:   -290  84  82
1720557494,647:   -281  84  82
1720557494,647:   -267  84  82
1720557494,647:   -272  84  82
1720557494,647:   -292  84  82
1720557494,647:   -303  84  82
1720557494,647:   -287  84  82
1720557494,647:   -259  84  82
1720557494,647:   -244  84  82
1720557494,647:   -249  84  82
1720557494,647:   -253  84  82
1720557494,647:   -236  84  82
1720557494,647:   -207  84  82
1720557494,647:   -188  84  82
1720557494,647:   -188  84  82
1720557494,647:   -191  84  82
1720557494,647:   -182  84  82
1720557494,647:   -165  84  82
1720557494,647:   -157  84  82
1720557494,647:   -159  84  82
1720557494,647:   -155  84  82
1720557494,647:   -136  84  82
1720557494,647:   -112  84  82
1720557494,647:   -102  84  82
1720557494,647:   -107  84  82
1720557494,647:   -106  84  82
1720557494,647:    -85  84  82
1720557494,647:    -59  84  82
1720557494,647:    -55  84  82
1720557494,647:    -71  84  82
1720557494,647:    -84  84  82
1720557494,647:    -71  84  82
1720557494,647:    -43  84  82
1720557494,647:    -27  84  82
1720557494,647:    -30  84  82
1720557494,647:    -35  84  82
1720557494,647:    -24  84  82
1720557494,647:     -7  84  82
1720557494,647:     -5  84  82
1720557494,647:    -23  84  82
1720557494,678:    -41  84  82
1720557494,678:    -38  84  82
1720557494,678:    -20  84  82
1720557494,678:     -9  84  82
1720557494,678:    -16  84  82
1720557494,678:    -27  84  82
1720557494,678:    -21  84  82
1720557494,709:     -2  84  82
1720557494,709:     10  84  82
1720557494,709:      5  84  82
1720557494,709:     -7  84  82
1720557494,709:     -7  84  82
1720557494,709:      4  84  82
1720557494,709:     12  84  82
1720557494,709:      7  84  82
1720557494,709:      2  84  82
1720557494,709:     15  84  82
1720557494,709:     39  84  82
1720557494,709:     50  84  82
1720557494,709:     30  84  82
1720557494,709:     -4  84  82
1720557494,709:    -20  84  82
1720557494,709:     -6  84  82
1720557494,709:     13  84  82
1720557494,709:     11  84  82
1720557494,709:    -10  84  82
1720557494,709:    -20  84  82
1720557494,709:     -6  84  82
1720557494,709:     12  84  82
1720557494,709:      5  84  82
1720557494,740:    -24  84  82
1720557494,740:    -43  84  82
1720557494,740:    -34  84  82
1720557494,740:    -12  84  82
1720557494,740:     -7  84  82
1720557494,740:    -21  84  82
1720557494,740:    -31  84  82
1720557494,740:    -17  84  82
1720557494,740:      7  84  82
1720557494,740:     14  84  82
1720557494,740:     -1  84  82
1720557494,740:    -14  84  82
1720557494,740:    -10  84  82
1720557494,740:      4  84  82
1720557494,740:      5  84  82
1720557494,771:    -10  84  82
1720557494,771:    -20  84  82
1720557494,771:    -13  84  82
1720557494,771:      1  84  82
1720557494,771:     -5  84  82
1720557494,771:    -30  84  82
1720557494,771:    -50  84  82
1720557494,771:    -46  84  82
1720557494,771:    -28  84  82
1720557494,771:    -20  84  82
1720557494,771:    -28  84  82
1720557494,771:    -33  84  82
1720557494,771:    -22  84  82
1720557494,771:     -8  84  82
1720557494,771:    -13  84  82
1720557494,802:    -35  84  82
1720557494,802:    -48  84  82
1720557494,802:    -35  84  82
1720557494,802:    -11  84  82
1720557494,802:     -5  84  82
1720557494,802:    -22  84  82
1720557494,802:    -33  84  82
1720557494,802:    -15  84  82
1720557494,802:     21  84  82
1720557494,802:     43  84  82
1720557494,802:     37  84  82
1720557494,802:     23  84  82
1720557494,802:     25  84  82
1720557494,802:     43  84  82
1720557494,802:     54  84  82
1720557494,834:     47  84  82
1720557494,834:     35  84  82
1720557494,834:     38  84  82
1720557494,834:     51  84  82
1720557494,834:     51  84  82
1720557494,834:     29  84  82
1720557494,834:      3  84  82
1720557494,834:      6  84  82
1720557494,834:     43  84  82
1720557494,834:     91  84  82
1720557494,834:    121  84  82
1720557494,834:    134  84  82
1720557494,834:    149  84  82
1720557494,834:    181  84  82
1720557494,834:    221  84  82
1720557494,865:    247  84  82
1720557494,865:    248  84  82
1720557494,865:    235  84  82
1720557494,865:    223  84  82
1720557494,865:    214  84  82
1720557494,865:    202  84  82
1720557494,865:    187  84  82
1720557494,865:    180  84  82
1720557494,865:    182  84  82
1720557494,865:    179  84  82
1720557494,865:    159  84  82
1720557494,865:    124  84  82
1720557494,865:     93  84  82
1720557494,865:     74  84  82
1720557494,865:     59  84  82
1720557494,896:     32  84  82
1720557494,896:     -5  84  82
1720557494,896:    -34  84  82
1720557494,896:    -44  84  82
1720557494,896:    -45  84  82
1720557494,896:    -53  84  82
1720557494,896:    -70  84  82
1720557494,896:    -73  84  82
1720557494,896:    -52  84  82
1720557494,896:    -19  84  82
1720557494,896:     -1  84  82
1720557494,896:     -5  84  82
1720557494,896:    -16  84  82
1720557494,896:    -14  84  82
1720557494,896:     -2  84  82
1720557494,896:      0  84  82
1720557494,896:    -18  84  82
1720557494,896:    -42  84  82
1720557494,896:    -53  84  82
1720557494,896:    -51  84  82
1720557494,896:    -47  84  82
1720557494,896:    -49  84  82
1720557494,935:    -45  84  82
1720557494,935:    -28  84  82
1720557494,935:     -9  84  82
1720557494,935:     -7  84  82
1720557494,935:    -24  84  82
1720557494,935:    -38  84  82
1720557494,935:    -33  84  82
1720557494,935:    -15  84  82
1720557494,935:     -5  84  82
1720557494,935:    -13  84  82
1720557494,935:    -20  84  82
1720557494,935:     -6  84  82
1720557494,935:     22  84  82
1720557494,935:     39  84  82
1720557494,935:     35  84  82
1720557494,957:     28  84  82
1720557494,957:     37  84  82
1720557494,957:     58  84  82
1720557494,957:     77  84  82
1720557494,957:     86  84  82
1720557494,957:     97  84  82
1720557494,957:    115  84  82
1720557494,957:    119  84  82
1720557494,988:     93  84  82
1720557494,988:     48  84  82
1720557494,988:     22  84  82
1720557494,988:     29  84  82
1720557494,988:     42  84  82
1720557494,988:     24  84  82
1720557494,988:    -13  84  82
1720557494,988:      7  84  82
1720557494,988:    159  84  82
1720557494,988:    440  84  82
1720557494,988:    801  84  82
1720557494,988:   1261  84  82
1720557494,988:   1946  84  82
1720557494,988:   2929  84  82
1720557494,988:   4049  84  82
1720557494,988:   4969  84  82
1720557494,988:   5475  84  82
1720557494,988:   5699  84  82
1720557494,988:   5926  84  82
1720557494,988:   6171  84  82
1720557494,988:   6042  84  82
1720557494,988:   5137  84  82
1720557495,066:   3543  87  84
1720557495,066:   1844  87  84
1720557495,066:    591  87  84
1720557495,066:   -174  87  84
1720557495,066:   -804  87  84
1720557495,066:  -1545  87  84
1720557495,066:  -2246  87  84
1720557495,066:  -2576  87  84
1720557495,066:  -2424  87  84
1720557495,066:  -1994  87  84
1720557495,066:  -1562  87  84
1720557495,066:  -1244  87  84
1720557495,066:  -1018  87  84
1720557495,066:   -864  87  84
1720557495,066:   -800  87  84
1720557495,066:   -816  87  84
1720557495,066:   -832  87  84
1720557495,066:   -778  87  84
1720557495,066:   -668  87  84
1720557495,066:   -582  87  84
1720557495,066:   -564  87  84
1720557495,066:   -584  87  84
1720557495,066:   -584  87  84
1720557495,066:   -554  87  84
1720557495,066:   -524  87  84
1720557495,066:   -528  87  84
1720557495,066:   -563  87  84
1720557495,066:   -604  87  84
1720557495,066:   -631  87  84
1720557495,066:   -645  87  84
1720557495,066:   -651  87  84
1720557495,066:   -640  87  84
1720557495,066:   -593  87  84
1720557495,066:   -512  87  84
1720557495,066:   -433  87  84
1720557495,066:   -392  87  84
1720557495,066:   -395  87  84
1720557495,066:   -409  87  84
1720557495,097:   -410  87  84
1720557495,097:   -399  87  84
1720557495,097:   -391  87  84
1720557495,097:   -387  87  84
1720557495,097:   -370  87  84
1720557495,097:   -330  87  84
1720557495,097:   -283  87  84
1720557495,097:   -253  87  84
1720557495,097:   -245  87  84
1720557495,097:   -242  87  84
1720557495,097:   -229  87  84
1720557495,097:   -214  87  84
1720557495,097:   -211  87  84
1720557495,097:   -217  87  84
1720557495,097:   -210  87  84
1720557495,128:   -182  87  84
1720557495,128:   -149  87  84
1720557495,128:   -134  87  84
1720557495,128:   -138  87  84
1720557495,128:   -137  87  84
1720557495,128:   -115  87  84
1720557495,128:    -83  87  84
1720557495,128:    -70  87  84
1720557495,128:    -79  87  84
1720557495,128:    -88  87  84
1720557495,128:    -73  87  84
1720557495,128:    -39  87  84
1720557495,128:    -13  87  84
1720557495,128:     -9  87  84
1720557495,128:    -17  87  84
1720557495,128:    -12  87  84
1720557495,128:     13  87  84
1720557495,128:     42  87  84
1720557495,128:     58  87  84
1720557495,128:     60  87  84
1720557495,158:     64  87  84
1720557495,158:     75  87  84
1720557495,158:     91  87  84
1720557495,158:    105  87  84
1720557495,158:    117  87  84
1720557495,158:    131  87  84
1720557495,158:    142  87  84
1720557495,158:    142  87  84
1720557495,158:    130  87  84
1720557495,158:    119  87  84
1720557495,158:    128  87  84
1720557495,158:    155  87  84
1720557495,158:    181  87  84
1720557495,158:    190  87  84
1720557495,158:    188  87  84
1720557495,192:    194  87  84
1720557495,192:    216  87  84
1720557495,192:    233  87  84
1720557495,192:    226  87  84
1720557495,192:    202  87  84
1720557495,192:    186  87  84
1720557495,192:    194  87  84
1720557495,220:    211  87  84
1720557495,220:    212  87  84
1720557495,220:    195  87  84
1720557495,220:    181  87  84
1720557495,220:    188  87  84
1720557495,220:    205  87  84
1720557495,220:    207  87  84
1720557495,220:    185  87  84
1720557495,220:    161  87  84
1720557495,220:    154  87  84
1720557495,220:    159  87  84
1720557495,220:    160  87  84
1720557495,220:    147  87  84
1720557495,220:    134  87  84
1720557495,220:    134  87  84
1720557495,220:    136  87  84
1720557495,220:    126  87  84
1720557495,220:    100  87  84
1720557495,220:     75  87  84
1720557495,220:     69  87  84
1720557495,220:     75  87  84
1720557495,220:     76  87  84
1720557495,220:     63  87  84
1720557495,255:     49  87  84
1720557495,255:     46  87  84
1720557495,255:     49  87  84
1720557495,255:     43  87  84
1720557495,255:     18  87  84
1720557495,255:    -13  87  84
1720557495,255:    -39  87  84
1720557495,255:    -62  87  84
1720557495,255:    -95  87  84
1720557495,255:   -142  87  84
1720557495,255:   -187  87  84
1720557495,255:   -211  87  84
1720557495,255:   -217  87  84
1720557495,255:   -227  87  84
1720557495,255:   -256  87  84
1720557495,283:   -290  87  84
1720557495,283:   -306  87  84
1720557495,283:   -296  87  84
1720557495,283:   -281  87  84
1720557495,283:   -282  87  84
1720557495,283:   -295  87  84
1720557495,283:   -301  87  84
1720557495,283:   -292  87  84
1720557495,283:   -284  87  84
1720557495,283:   -292  87  84
1720557495,283:   -309  87  84
1720557495,283:   -313  87  84
1720557495,283:   -297  87  84
1720557495,283:   -280  87  84
1720557495,283:   -282  87  84
1720557495,345:   -294  87  84
1720557495,345:   -290  87  84
1720557495,345:   -260  87  84
1720557495,345:   -225  87  84
1720557495,345:   -215  87  84
1720557495,345:   -231  87  84
1720557495,345:   -244  87  84
1720557495,345:   -233  87  84
1720557495,345:   -207  87  84
1720557495,345:   -192  87  84
1720557495,345:   -195  87  84
1720557495,345:   -194  87  84
1720557495,345:   -175  87  84
1720557495,345:   -150  87  84
1720557495,345:   -144  87  84
1720557495,345:   -159  87  84
1720557495,345:   -166  87  84
1720557495,345:   -147  87  84
1720557495,345:   -115  87  84
1720557495,345:   -102  87  84
1720557495,345:   -113  87  84
1720557495,345:   -121  87  84
1720557495,345:   -100  87  84
1720557495,345:    -63  87  84
1720557495,345:    -45  87  84
1720557495,345:    -62  87  84
1720557495,345:    -88  87  84
1720557495,345:    -89  87  84
1720557495,345:    -62  87  84
1720557495,345:    -38  87  84
1720557495,377:    -37  87  84
1720557495,377:    -49  87  84
1720557495,377:    -49  87  84
1720557495,377:    -30  87  84
1720557495,377:    -15  87  84
1720557495,377:    -21  87  84
1720557495,377:    -36  87  84
1720557495,377:    -38  87  84
1720557495,377:    -21  87  84
1720557495,377:     -4  87  84
1720557495,377:     -5  87  84
1720557495,377:    -16  87  84
1720557495,377:    -13  87  84
1720557495,377:      9  87  84
1720557495,377:     30  87  84
1720557495,377:     29  87  84
1720557495,377:     10  87  84
1720557495,377:     -4  87  84
1720557495,377:     -3  87  84
1720557495,377:      1  87  84
1720557495,377:     -6  87  84
1720557495,377:    -22  87  84
1720557495,408:    -27  87  84
1720557495,408:    -14  87  84
1720557495,408:      0  87  84
1720557495,408:     -2  87  84
1720557495,408:    -17  87  84
1720557495,408:    -23  87  84
1720557495,408:     -9  87  84
1720557495,408:     11  87  84
1720557495,438:     15  87  84
1720557495,438:      1  87  84
1720557495,438:    -13  87  84
1720557495,438:    -15  87  84
1720557495,438:    -16  87  84
1720557495,438:    -31  87  84
1720557495,438:    -56  87  84
1720557495,438:    -69  87  84
1720557495,438:    -62  87  84
1720557495,438:    -48  87  84
1720557495,438:    -45  87  84
1720557495,438:    -52  87  84
1720557495,438:    -50  87  84
1720557495,438:    -33  87  84
1720557495,438:    -15  87  84
1720557495,438:    -20  87  84
1720557495,438:    -43  87  84
1720557495,438:    -60  87  84
1720557495,438:    -54  87  84
1720557495,438:    -36  87  84
1720557495,438:    -31  87  84
1720557495,438:    -42  87  84
1720557495,472:    -47  87  84
1720557495,472:    -28  87  84
1720557495,472:      2  87  84
1720557495,472:     13  87  84
1720557495,472:     -4  87  84
1720557495,472:    -28  87  84
1720557495,472:    -33  87  84
1720557495,472:    -21  87  84
1720557495,472:    -14  87  84
1720557495,472:    -26  87  84
1720557495,472:    -40  87  84
1720557495,472:    -36  87  84
1720557495,472:    -11  87  84
1720557495,472:     12  87  84
1720557495,472:     19  87  84
1720557495,500:     17  87  84
1720557495,500:     27  87  84
1720557495,500:     52  87  84
1720557495,500:     75  87  84
1720557495,500:     81  87  84
1720557495,500:     74  87  84
1720557495,500:     70  87  84
1720557495,500:     72  87  84
1720557495,500:     67  87  84
1720557495,500:     44  87  84
1720557495,500:     15  87  84
1720557495,500:      3  87  84
1720557495,500:     19  87  84
1720557495,500:     51  87  84
1720557495,500:     79  87  84
1720557495,532:    100  87  84
1720557495,532:    129  87  84
1720557495,532:    172  87  84
1720557495,532:    217  87  84
1720557495,532:    243  87  84
1720557495,532:    246  87  84
1720557495,532:    240  87  84
1720557495,532:    235  87  84
1720557495,532:    228  87  84
1720557495,532:    208  87  84
1720557495,532:    180  87  84
1720557495,532:    160  87  84
1720557495,532:    157  87  84
1720557495,532:    158  87  84
1720557495,532:    146  87  84
1720557495,562:    118  87  84
1720557495,562:     90  87  84
1720557495,562:     75  87  84
1720557495,562:     65  87  84
1720557495,562:     43  87  84
1720557495,562:      5  87  84
1720557495,562:    -30  87  84
1720557495,562:    -47  87  84
1720557495,562:    -53  87  84
1720557495,562:    -68  87  84
1720557495,562:    -96  87  84
1720557495,562:   -115  87  84
1720557495,562:   -108  87  84
1720557495,562:    -81  87  84
1720557495,562:    -60  87  84
1720557495,595:    -62  87  84
1720557495,595:    -73  87  84
1720557495,595:    -70  87  84
1720557495,595:    -57  87  84
1720557495,595:    -53  87  84
1720557495,595:    -70  87  84
1720557495,595:    -91  87  84
1720557495,595:    -90  87  84
1720557495,595:    -68  87  84
1720557495,595:    -49  87  84
1720557495,595:    -49  87  84
1720557495,595:    -53  87  84
1720557495,595:    -38  87  84
1720557495,595:     -7  87  84
1720557495,595:      9  87  84
1720557495,595:     -6  87  84
1720557495,595:    -33  87  84
1720557495,595:    -40  87  84
1720557495,595:    -21  87  84
1720557495,595:     -3  87  84
1720557495,595:    -10  87  84
1720557495,595:    -29  87  84
1720557495,595:    -29  87  84
1720557495,625:     -1  87  84
1720557495,625:     26  87  84
1720557495,625:     25  87  84
1720557495,625:      7  87  84
1720557495,625:      6  87  84
1720557495,625:     31  87  84
1720557495,625:     58  87  84
1720557495,658:     64  87  84
1720557495,658:     60  87  84
1720557495,658:     79  87  84
1720557495,658:    120  87  84
1720557495,658:    135  87  84
1720557495,658:     93  87  84
1720557495,658:     26  87  84
1720557495,658:     -1  87  84
1720557495,658:     27  87  84
1720557495,658:     50  87  84
1720557495,658:     11  87  84
1720557495,658:    -65  87  84
1720557495,658:    -71  87  84
1720557495,658:     75  87  84
1720557495,658:    345  87  84
1720557495,692:    660  87  84
1720557495,692:   1046  87  84
1720557495,692:   1671  87  84
1720557495,692:   2654  87  84
1720557495,692:   3849  87  84
1720557495,692:   4887  87  84
1720557495,692:   5504  87  84
1720557495,692:   5807  87  84
1720557495,692:   6105  87  84
1720557495,692:   6466  87  84
1720557495,692:   6509  87  84
1720557495,692:   5760  87  84
1720557495,692:   4202  87  84
1720557495,692:   2388  87  84
1720557495,692:    946  87  84
1720557495,692:     43  87  84
1720557495,692:   -633  87  84
1720557495,692:  -1390  87  84
1720557495,692:  -2161  87  84
1720557495,692:  -2620  87  84
1720557495,692:  -2574  87  84
1720557495,692:  -2151  87  84
1720557495,692:  -1636  87  84
1720557495,719:  -1219  88  86
1720557495,719:   -944  88  86
1720557495,719:   -798  88  86
1720557495,719:   -764  88  86
1720557495,719:   -803  88  86
1720557495,719:   -839  88  86
1720557495,719:   -818  88  86
1720557495,719:   -762  88  86
1720557495,719:   -726  88  86
1720557495,719:   -729  88  86
1720557495,719:   -738  88  86
1720557495,719:   -717  88  86
1720557495,719:   -675  88  86
1720557495,719:   -638  88  86
1720557495,719:   -617  88  86
1720557495,751:   -609  88  86
1720557495,751:   -621  88  86
1720557495,751:   -664  88  86
1720557495,751:   -725  88  86
1720557495,751:   -766  88  86
1720557495,751:   -748  88  86
1720557495,751:   -670  88  86
1720557495,751:   -575  88  86
1720557495,751:   -508  88  86
1720557495,751:   -480  88  86
1720557495,751:   -466  88  86
1720557495,751:   -449  88  86
1720557495,751:   -439  88  86
1720557495,751:   -454  88  86
1720557495,751:   -482  88  86
1720557495,782:   -492  88  86
1720557495,782:   -464  88  86
1720557495,782:   -416  88  86
1720557495,782:   -380  88  86
1720557495,782:   -368  88  86
1720557495,782:   -362  88  86
1720557495,782:   -348  88  86
1720557495,782:   -331  88  86
1720557495,782:   -328  88  86
1720557495,782:   -334  88  86
1720557495,782:   -329  88  86
1720557495,782:   -297  88  86
1720557495,782:   -252  88  86
1720557495,782:   -218  88  86
1720557495,782:   -207  88  86
1720557495,813:   -205  88  86
1720557495,813:   -196  88  86
1720557495,813:   -180  88  86
1720557495,813:   -167  88  86
1720557495,813:   -160  88  86
1720557495,813:   -151  88  86
1720557495,813:   -136  88  86
1720557495,813:   -119  88  86
1720557495,813:   -104  88  86
1720557495,813:    -92  88  86
1720557495,813:    -73  88  86
1720557495,813:    -45  88  86
1720557495,813:    -20  88  86
1720557495,813:    -12  88  86
1720557495,813:    -18  88  86
1720557495,844:    -21  88  86
1720557495,844:     -5  88  86
1720557495,844:     24  88  86
1720557495,844:     45  88  86
1720557495,844:     47  88  86
1720557495,844:     44  88  86
1720557495,844:     54  88  86
1720557495,844:     81  88  86
1720557495,844:    107  88  86
1720557495,844:    114  88  86
1720557495,844:    110  88  86
1720557495,844:    117  88  86
1720557495,844:    143  88  86
1720557495,844:    172  88  86
1720557495,844:    185  88  86
1720557495,875:    182  88  86
1720557495,875:    184  88  86
1720557495,875:    198  88  86
1720557495,875:    211  88  86
1720557495,875:    204  88  86
1720557495,875:    181  88  86
1720557495,875:    165  88  86
1720557495,875:    171  88  86
1720557495,875:    186  88  86
1720557495,875:    189  88  86
1720557495,875:    178  88  86
1720557495,875:    175  88  86
1720557495,875:    193  88  86
1720557495,875:    214  88  86
1720557495,875:    212  88  86
1720557495,906:    184  88  86
1720557495,906:    155  88  86
1720557495,906:    150  88  86
1720557495,906:    160  88  86
1720557495,906:    160  88  86
1720557495,906:    140  88  86
1720557495,906:    120  88  86
1720557495,906:    119  88  86
1720557495,906:    129  88  86
1720557495,906:    125  88  86
1720557495,906:    101  88  86
1720557495,906:     81  88  86
1720557495,906:     87  88  86
1720557495,906:    111  88  86
1720557495,906:    124  88  86
1720557495,937:    114  88  86
1720557495,937:    101  88  86
1720557495,937:    108  88  86
1720557495,937:    128  88  86
1720557495,937:    131  88  86
1720557495,937:    101  88  86
1720557495,937:     56  88  86
1720557495,937:     23  88  86
1720557495,937:      8  88  86
1720557495,937:    -12  88  86
1720557495,937:    -48  88  86
1720557495,937:    -89  88  86
1720557495,937:   -117  88  86
1720557495,937:   -135  88  86
1720557495,937:   -161  88  86
1720557495,970:   -201  88  86
1720557495,970:   -234  88  86
1720557495,970:   -244  88  86
1720557495,970:   -236  88  86
1720557495,970:   -237  88  86
1720557495,970:   -259  88  86
1720557495,970:   -282  88  86
1720557495,970:   -286  88  86
1720557495,970:   -276  88  86
1720557495,970:   -275  88  86
1720557495,970:   -297  88  86
1720557495,970:   -323  88  86
1720557495,970:   -330  88  86
1720557495,970:   -318  88  86
1720557495,970:   -307  88  86
1720557495,970:   -311  88  86
1720557495,970:   -317  88  86
1720557495,970:   -306  88  86
1720557495,970:   -277  88  86
1720557495,970:   -256  88  86
1720557495,970:   -258  88  86
1720557495,970:   -274  88  86
1720557496,049:   -277  88  86
1720557496,049:   -259  88  86
1720557496,049:   -238  88  86
1720557496,049:   -235  88  86
1720557496,049:   -247  88  86
1720557496,049:   -251  88  86
1720557496,049:   -233  88  86
1720557496,049:   -206  88  86
1720557496,049:   -197  88  86
1720557496,049:   -208  88  86
1720557496,049:   -220  88  86
1720557496,049:   -211  88  86
1720557496,049:   -185  88  86
1720557496,049:   -165  88  86
1720557496,049:   -162  88  86
1720557496,049:   -164  88  86
1720557496,049:   -154  88  86
1720557496,049:   -135  88  86
1720557496,049:   -123  88  86
1720557496,049:   -126  88  86
1720557496,049:   -133  88  86
1720557496,049:   -130  88  86
1720557496,049:   -117  88  86
1720557496,049:   -110  88  86
1720557496,049:   -112  88  86
1720557496,049:   -110  88  86
1720557496,049:    -96  88  86
1720557496,049:    -78  88  86
1720557496,049:    -75  88  86
1720557496,049:    -90  88  86
1720557496,049:   -104  88  86
1720557496,049:    -97  88  86
1720557496,049:    -75  88  86
1720557496,049:    -61  88  86
1720557496,049:    -68  88  86
1720557496,049:    -80  88  86
1720557496,049:    -74  88  86
1720557496,049:    -53  88  86
1720557496,076:    -40  88  86
1720557496,076:    -52  88  86
1720557496,076:    -76  88  86
1720557496,076:    -84  88  86
1720557496,076:    -70  88  86
1720557496,076:    -53  88  86
1720557496,076:    -56  88  86
1720557496,076:    -73  88  86
1720557496,076:    -80  88  86
1720557496,076:    -66  88  86
1720557496,076:    -51  88  86
1720557496,076:    -59  88  86
1720557496,076:    -86  88  86
1720557496,076:   -105  88  86
1720557496,076:   -100  88  86
1720557496,112:    -82  88  86
1720557496,112:    -74  88  86
1720557496,112:    -80  88  86
1720557496,112:    -82  88  86
1720557496,112:    -70  88  86
1720557496,112:    -58  88  86
1720557496,112:    -63  88  86
1720557496,112:    -81  88  86
1720557496,112:    -90  88  86
1720557496,112:    -80  88  86
1720557496,112:    -65  88  86
1720557496,112:    -65  88  86
1720557496,112:    -79  88  86
1720557496,112:    -84  88  86
1720557496,112:    -69  88  86
1720557496,112:    -49  88  86
1720557496,112:    -45  88  86
1720557496,112:    -61  88  86
1720557496,112:    -73  88  86
1720557496,138:    -66  88  86
1720557496,138:    -47  88  86
1720557496,138:    -39  88  86
1720557496,138:    -51  88  86
1720557496,138:    -66  88  86
1720557496,138:    -63  88  86
1720557496,138:    -45  88  86
1720557496,138:    -37  88  86
1720557496,175:    -53  88  86
1720557496,175:    -77  88  86
1720557496,175:    -82  88  86
1720557496,175:    -64  88  86
1720557496,175:    -48  88  86
1720557496,175:    -55  88  86
1720557496,175:    -73  88  86
1720557496,175:    -77  88  86
1720557496,175:    -59  88  86
1720557496,175:    -44  88  86
1720557496,175:    -55  88  86
1720557496,175:    -82  88  86
1720557496,175:    -94  88  86
1720557496,175:    -80  88  86
1720557496,175:    -58  88  86
1720557496,175:    -52  88  86
1720557496,175:    -57  88  86
1720557496,175:    -49  88  86
1720557496,175:    -23  88  86
1720557496,175:      1  88  86
1720557496,175:      4  88  86
1720557496,175:     -7  88  86
1720557496,201:     -4  88  86
1720557496,201:     17  88  86
1720557496,201:     32  88  86
1720557496,201:     22  88  86
1720557496,201:      0  88  86
1720557496,201:     -7  88  86
1720557496,201:      5  88  86
1720557496,201:     13  88  86
1720557496,201:     -2  88  86
1720557496,201:    -22  88  86
1720557496,201:    -16  88  86
1720557496,201:     26  88  86
1720557496,201:     77  88  86
1720557496,201:    110  88  86
1720557496,201:    129  88  86
1720557496,232:    156  88  86
1720557496,232:    200  88  86
1720557496,232:    235  88  86
1720557496,232:    237  88  86
1720557496,232:    210  88  86
1720557496,232:    181  88  86
1720557496,232:    165  88  86
1720557496,232:    151  88  86
1720557496,263:    122  88  86
1720557496,263:     85  88  86
1720557496,263:     61  88  86
1720557496,263:     61  88  86
1720557496,263:     66  88  86
1720557496,263:     50  88  86
1720557496,263:     12  88  86
1720557496,263:    -25  88  86
1720557496,263:    -41  88  86
1720557496,263:    -47  88  86
1720557496,263:    -66  88  86
1720557496,263:   -102  88  86
1720557496,263:   -138  88  86
1720557496,263:   -155  88  86
1720557496,263:   -153  88  86
1720557496,263:   -153  88  86
1720557496,263:   -161  88  86
1720557496,263:   -166  88  86
1720557496,263:   -154  88  86
1720557496,263:   -127  88  86
1720557496,263:   -107  88  86
1720557496,263:   -105  88  86
1720557496,294:   -111  88  86
1720557496,294:   -106  88  86
1720557496,294:    -89  88  86
1720557496,294:    -79  88  86
1720557496,294:    -90  88  86
1720557496,294:   -112  88  86
1720557496,294:   -123  88  86
1720557496,294:   -115  88  86
1720557496,294:    -99  88  86
1720557496,294:    -94  88  86
1720557496,294:   -101  88  86
1720557496,294:   -104  88  86
1720557496,294:    -96  88  86
1720557496,294:    -84  88  86
1720557496,294:    -82  88  86
1720557496,341:    -90  88  86
1720557496,341:    -94  88  86
1720557496,341:    -85  88  86
1720557496,341:    -70  88  86
1720557496,341:    -63  88  86
1720557496,341:    -64  88  86
1720557496,341:    -64  88  86
1720557496,341:    -50  88  86
1720557496,341:    -29  88  86
1720557496,341:    -20  88  86
1720557496,341:    -25  88  86
1720557496,341:    -21  88  86
1720557496,341:     12  88  86
1720557496,341:     71  88  86
1720557496,341:    117  88  86
1720557496,341:    114  88  86
1720557496,341:     66  88  86
1720557496,341:     16  88  86
1720557496,341:      9  88  86
1720557496,341:     26  88  86
1720557496,341:      0  88  86
1720557496,341:   -106  88  86
1720557496,341:   -252  88  86
1720557496,373:   -322  88  86
1720557496,373:   -229  88  86
1720557496,373:     17  88  86
1720557496,373:    367  88  86
1720557496,373:    865  88  86
1720557496,373:   1657  88  86
1720557496,373:   2819  88  86
1720557496,373:   4174  88  86
1720557496,373:   5363  88  86
1720557496,373:   6152  88  86
1720557496,373:   6641  88  86
1720557496,373:   7082  88  86
1720557496,373:   7478  88  86
1720557496,373:   7451  88  86
1720557496,373:   6589  88  86
1720557496,455:   4930  87  86
1720557496,455:   3027  87  86
1720557496,455:   1487  87  86
1720557496,455:    478  87  86
1720557496,455:   -278  87  86
1720557496,455:  -1085  87  86
1720557496,455:  -1907  87  86
1720557496,455:  -2434  87  86
1720557496,455:  -2434  87  86
1720557496,455:  -1993  87  86
1720557496,455:  -1421  87  86
1720557496,455:   -992  87  86
1720557496,455:   -799  87  86
1720557496,455:   -774  87  86
1720557496,455:   -809  87  86
1720557496,455:   -839  87  86
1720557496,455:   -850  87  86
1720557496,455:   -862  87  86
1720557496,455:   -884  87  86
1720557496,455:   -908  87  86
1720557496,455:   -926  87  86
1720557496,455:   -934  87  86
1720557496,455:   -939  87  86
1720557496,455:   -946  87  86
1720557496,455:   -944  87  86
1720557496,455:   -927  87  86
1720557496,455:   -911  87  86
1720557496,455:   -917  87  86
1720557496,455:   -938  87  86
1720557496,455:   -948  87  86
1720557496,455:   -923  87  86
1720557496,455:   -870  87  86
1720557496,455:   -810  87  86
1720557496,455:   -757  87  86
1720557496,455:   -705  87  86
1720557496,455:   -654  87  86
1720557496,455:   -623  87  86
1720557496,455:   -629  87  86
1720557496,455:   -661  87  86
1720557496,455:   -681  87  86
1720557496,455:   -666  87  86
1720557496,455:   -624  87  86
1720557496,455:   -584  87  86
1720557496,455:   -559  87  86
1720557496,455:   -535  87  86
1720557496,482:   -503  87  86
1720557496,482:   -473  87  86
1720557496,482:   -467  87  86
1720557496,482:   -479  87  86
1720557496,482:   -483  87  86
1720557496,482:   -460  87  86
1720557496,482:   -422  87  86
1720557496,482:   -396  87  86
1720557496,482:   -391  87  86
1720557496,482:   -386  87  86
1720557496,482:   -364  87  86
1720557496,482:   -332  87  86
1720557496,482:   -312  87  86
1720557496,482:   -311  87  86
1720557496,482:   -307  87  86
1720557496,525:   -280  87  86
1720557496,525:   -236  87  86
1720557496,525:   -205  87  86
1720557496,525:   -204  87  86
1720557496,525:   -215  87  86
1720557496,525:   -210  87  86
1720557496,525:   -179  87  86
1720557496,525:   -145  87  86
1720557496,525:   -131  87  86
1720557496,525:   -131  87  86
1720557496,525:   -124  87  86
1720557496,525:    -97  87  86
1720557496,525:    -67  87  86
1720557496,525:    -55  87  86
1720557496,525:    -59  87  86
1720557496,525:    -57  87  86
1720557496,525:    -35  87  86
1720557496,525:     -4  87  86
1720557496,525:     14  87  86
1720557496,525:     16  87  86
1720557496,525:     23  87  86
1720557496,525:     47  87  86
1720557496,561:     76  87  86
1720557496,561:     89  87  86
1720557496,561:     83  87  86
1720557496,561:     78  87  86
1720557496,561:     89  87  86
1720557496,561:    109  87  86
1720557496,561:    118  87  86
1720557496,561:    115  87  86
1720557496,561:    115  87  86
1720557496,561:    134  87  86
1720557496,561:    159  87  86
1720557496,561:    168  87  86
1720557496,561:    155  87  86
1720557496,561:    143  87  86
1720557496,561:    148  87  86
1720557496,601:    165  87  86
1720557496,601:    171  87  86
1720557496,601:    158  87  86
1720557496,601:    144  87  86
1720557496,601:    146  87  86
1720557496,601:    155  87  86
1720557496,601:    147  87  86
1720557496,601:    116  87  86
1720557496,601:     83  87  86
1720557496,601:     74  87  86
1720557496,601:     88  87  86
1720557496,601:     99  87  86
1720557496,601:     89  87  86
1720557496,601:     72  87  86
1720557496,601:     71  87  86
1720557496,601:     88  87  86
1720557496,601:     98  87  86
1720557496,601:     85  87  86
1720557496,601:     62  87  86
1720557496,601:     55  87  86
1720557496,601:     66  87  86
1720557496,601:     75  87  86
1720557496,601:     61  87  86
1720557496,666:     34  87  86
1720557496,666:     18  87  86
1720557496,666:     20  87  86
1720557496,666:     17  87  86
1720557496,666:    -14  87  86
1720557496,666:    -66  87  86
1720557496,666:   -109  87  86
1720557496,666:   -127  87  86
1720557496,666:   -135  87  86
1720557496,666:   -152  87  86
1720557496,666:   -179  87  86
1720557496,666:   -200  87  86
1720557496,666:   -206  87  86
1720557496,666:   -209  87  86
1720557496,666:   -225  87  86
1720557496,666:   -250  87  86
1720557496,666:   -266  87  86
1720557496,666:   -264  87  86
1720557496,666:   -258  87  86
1720557496,666:   -261  87  86
1720557496,666:   -273  87  86
1720557496,666:   -279  87  86
1720557496,741:   -270  87  86
1720557496,741:   -260  87  86
1720557496,741:   -265  87  86
1720557496,741:   -281  87  86
1720557496,741:   -286  87  86
1720557496,741:   -270  87  86
1720557496,741:   -248  87  86
1720557496,741:   -240  87  86
1720557496,741:   -246  87  86
1720557496,741:   -245  87  86
1720557496,741:   -222  87  86
1720557496,741:   -192  87  86
1720557496,741:   -184  87  86
1720557496,741:   -201  87  86
1720557496,741:   -214  87  86
1720557496,741:   -202  87  86
1720557496,741:   -172  87  86
1720557496,741:   -153  87  86
1720557496,741:   -155  87  86
1720557496,741:   -160  87  86
1720557496,741:   -144  87  86
1720557496,741:   -114  87  86
1720557496,741:    -98  87  86
1720557496,741:   -106  87  86
1720557496,741:   -117  87  86
1720557496,741:   -108  87  86
1720557496,741:    -82  87  86
1720557496,741:    -65  87  86
1720557496,741:    -69  87  86
1720557496,741:    -79  87  86
1720557496,741:    -71  87  86
1720557496,741:    -47  87  86
1720557496,741:    -34  87  86
1720557496,741:    -47  87  86
1720557496,741:    -68  87  86
1720557496,741:    -71  87  86
1720557496,741:    -50  87  86
1720557496,741:    -30  87  86
1720557496,741:    -33  87  86
1720557496,741:    -48  87  86
1720557496,741:    -48  87  86
1720557496,741:    -29  87  86
1720557496,741:    -13  87  86
1720557496,741:    -18  87  86
1720557496,741:    -34  87  86
1720557496,845:    -36  87  86
1720557496,845:    -17  87  86
1720557496,845:      2  87  86
1720557496,845:      2  87  86
1720557496,845:    -10  87  86
1720557496,845:    -12  87  86
1720557496,845:      0  87  86
1720557496,845:     10  87  86
1720557496,845:      3  87  86
1720557496,845:    -11  87  86
1720557496,845:    -14  87  86
1720557496,845:     -5  87  86
1720557496,845:     -3  87  86
1720557496,845:    -14  87  86
1720557496,845:    -25  87  86
1720557496,845:    -18  87  86
1720557496,845:      2  87  86
1720557496,845:      8  87  86
1720557496,845:    -13  87  86
1720557496,845:    -43  87  86
1720557496,845:    -53  87  86
1720557496,845:    -39  87  86
1720557496,845:    -22  87  86
1720557496,845:    -23  87  86
1720557496,845:    -35  87  86
1720557496,845:    -35  87  86
1720557496,845:    -17  87  86
1720557496,845:      1  87  86
1720557496,845:     -2  87  86
1720557496,845:    -20  87  86
1720557496,845:    -28  87  86
1720557496,845:    -14  87  86
1720557496,845:      4  87  86
1720557496,845:      5  87  86
1720557496,845:    -13  87  86
1720557496,845:    -23  87  86
1720557496,845:     -9  87  86
1720557496,845:     14  87  86
1720557496,845:     17  87  86
1720557496,845:     -4  87  86
1720557496,845:    -27  87  86
1720557496,845:    -27  87  86
1720557496,845:     -9  87  86
1720557496,845:      1  87  86
1720557496,845:     -6  87  86
1720557496,955:    -14  87  86
1720557496,955:     -4  87  86
1720557496,955:     17  87  86
1720557496,955:     23  87  86
1720557496,955:      7  87  86
1720557496,955:    -12  87  86
1720557496,955:    -11  87  86
1720557496,955:      5  87  86
1720557496,955:      8  87  86
1720557496,955:    -11  87  86
1720557496,955:    -31  87  86
1720557496,955:    -26  87  86
1720557496,955:      0  87  86
1720557496,955:     16  87  86
1720557496,955:      3  87  86
1720557496,955:    -20  87  86
1720557496,955:    -23  87  86
1720557496,955:     -2  87  86
1720557496,955:     18  87  86
1720557496,955:     16  87  86
1720557496,955:      4  87  86
1720557496,955:      8  87  86
1720557496,955:     37  87  86
1720557496,955:     65  87  86
1720557496,955:     69  87  86
1720557496,955:     57  87  86
1720557496,955:     55  87  86
1720557496,955:     73  87  86
1720557496,955:     92  87  86
1720557496,955:     91  87  86
1720557496,955:     74  87  86
1720557496,955:     63  87  86
1720557496,955:     66  87  86
1720557496,955:     67  87  86
1720557496,955:     51  87  86
1720557496,955:     31  87  86
1720557496,955:     34  87  86
1720557496,955:     71  87  86
1720557496,955:    114  87  86
1720557496,955:    137  87  86
1720557496,955:    146  87  86
1720557496,955:    168  87  86
1720557496,955:    214  87  86
1720557496,955:    258  87  86
1720557496,955:    267  87  86
1720557496,955:    240  87  86
1720557496,955:    211  87  86
1720557496,955:    203  87  86
1720557496,955:    205  87  86
1720557496,955:    189  87  86
1720557496,955:    152  87  86
1720557496,955:    122  87  86
1720557496,955:    120  87  86
1720557496,955:    130  87  86
1720557496,955:    119  87  86
1720557496,955:     75  87  86
1720557496,955:     27  87  86
1720557496,955:      4  87  86
1720557496,955:      4  87  86
1720557496,955:     -4  87  86
1720557497,004:    -37  87  86
1720557497,004:    -80  87  86
1720557497,004:   -102  87  86
1720557497,004:    -97  87  86
1720557497,004:    -90  87  86
1720557497,004:   -100  87  86
1720557497,004:   -120  87  86
1720557497,004:   -123  87  86
1720557497,004:   -101  87  86
1720557497,004:    -76  87  86
1720557497,004:    -68  87  86
1720557497,004:    -78  87  86
1720557497,004:    -81  87  86
1720557497,004:    -66  87  86
1720557497,004:    -48  87  86
1720557497,004:    -49  87  86
1720557497,004:    -70  87  86
1720557497,004:    -88  87  86
1720557497,004:    -85  87  86
1720557497,004:    -69  87  86
1720557497,004:    -60  87  86
1720557497,004:    -63  87  86
1720557497,004:    -61  87  86
1720557497,041:    -41  87  86
1720557497,041:    -15  87  86
1720557497,041:     -7  87  86
1720557497,041:    -23  87  86
1720557497,041:    -41  87  86
1720557497,041:    -40  87  86
1720557497,041:    -23  87  86
1720557497,041:    -10  87  86
1720557497,041:    -16  87  86
1720557497,041:    -27  87  86
1720557497,041:    -29  87  86
1720557497,041:    -17  87  86
1720557497,041:     -4  87  86
1720557497,041:      3  87  86
1720557497,041:      8  87  86
1720557497,041:     26  87  86
1720557497,041:     56  87  86
1720557497,041:     91  87  86
1720557497,041:    119  87  86
1720557497,041:    126  87  86
1720557497,041:    105  87  86
1720557497,041:     63  87  86
1720557497,081:     27  87  86
1720557497,081:     13  87  86
1720557497,081:     -3  87  86
1720557497,081:    -65  87  86
1720557497,081:   -181  87  86
1720557497,081:   -278  87  86
1720557497,081:   -246  87  86
1720557497,081:    -39  87  86
1720557497,081:    301  87  86
1720557497,081:    756  87  86
1720557497,081:   1422  87  86
1720557497,081:   2411  87  86
1720557497,081:   3652  87  86
1720557497,081:   4843  87  86
1720557497,081:   5687  87  86
1720557497,081:   6181  87  86
1720557497,081:   6564  87  86
1720557497,081:   6949  87  86
1720557497,081:   7061  87  86
1720557497,081:   6456  87  86
1720557497,081:   5028  87  86
1720557497,081:   3218  87  86
1720557497,081:   1663  87  86
1720557497,142:    645  86  87
1720557497,142:    -57  86  87
1720557497,142:   -795  86  87
1720557497,142:  -1610  86  87
1720557497,142:  -2212  86  87
1720557497,142:  -2317  86  87
1720557497,142:  -1954  86  87
1720557497,142:  -1420  86  87
1720557497,142:   -999  86  87
1720557497,142:   -786  86  87
1720557497,142:   -720  86  87
1720557497,142:   -713  86  87
1720557497,142:   -729  86  87
1720557497,142:   -757  86  87
1720557497,142:   -785  86  87
1720557497,142:   -798  86  87
1720557497,142:   -800  86  87
1720557497,142:   -817  86  87
1720557497,142:   -857  86  87
1720557497,142:   -899  86  87
1720557497,142:   -913  86  87
1720557497,142:   -893  86  87
1720557497,142:   -861  86  87
1720557497,142:   -849  86  87
1720557497,142:   -867  86  87
1720557497,142:   -890  86  87
1720557497,142:   -892  86  87
1720557497,142:   -870  86  87
1720557497,142:   -840  86  87
1720557497,142:   -806  86  87
1720557497,142:   -756  86  87
1720557497,142:   -690  86  87
1720557497,142:   -631  86  87
1720557497,142:   -609  86  87
1720557497,142:   -627  86  87
1720557497,172:   -652  86  87
1720557497,172:   -651  86  87
1720557497,172:   -625  86  87
1720557497,172:   -601  86  87
1720557497,172:   -590  86  87
1720557497,172:   -572  86  87
1720557497,172:   -530  86  87
1720557497,172:   -479  86  87
1720557497,172:   -451  86  87
1720557497,172:   -458  86  87
1720557497,172:   -473  86  87
1720557497,172:   -458  86  87
1720557497,172:   -414  86  87
1720557497,172:   -372  86  87
1720557497,172:   -358  86  87
1720557497,211:   -359  86  87
1720557497,211:   -346  86  87
1720557497,211:   -314  86  87
1720557497,211:   -283  86  87
1720557497,211:   -272  86  87
1720557497,211:   -272  86  87
1720557497,211:   -262  86  87
1720557497,211:   -235  86  87
1720557497,211:   -211  86  87
1720557497,211:   -203  86  87
1720557497,211:   -205  86  87
1720557497,211:   -193  86  87
1720557497,211:   -165  86  87
1720557497,211:   -139  86  87
1720557497,211:   -131  86  87
1720557497,242:   -136  86  87
1720557497,242:   -128  86  87
1720557497,242:   -101  86  87
1720557497,242:    -75  86  87
1720557497,242:    -72  86  87
1720557497,242:    -87  86  87
1720557497,242:    -92  86  87
1720557497,242:    -70  86  87
1720557497,242:    -35  86  87
1720557497,242:    -13  86  87
1720557497,242:     -7  86  87
1720557497,242:      0  86  87
1720557497,242:     26  86  87
1720557497,242:     58  86  87
1720557497,242:     73  86  87
1720557497,277:     68  86  87
1720557497,277:     63  86  87
1720557497,277:     76  86  87
1720557497,277:    100  86  87
1720557497,277:    112  86  87
1720557497,277:    108  86  87
1720557497,277:    105  86  87
1720557497,277:    119  86  87
1720557497,277:    141  86  87
1720557497,277:    151  86  87
1720557497,277:    141  86  87
1720557497,277:    129  86  87
1720557497,277:    133  86  87
1720557497,277:    149  86  87
1720557497,277:    157  86  87
1720557497,277:    149  86  87
1720557497,277:    141  86  87
1720557497,277:    147  86  87
1720557497,277:    161  86  87
1720557497,277:    163  86  87
1720557497,277:    143  86  87
1720557497,277:    118  86  87
1720557497,316:    109  86  87
1720557497,316:    115  86  87
1720557497,316:    117  86  87
1720557497,316:    102  86  87
1720557497,316:     81  86  87
1720557497,316:     72  86  87
1720557497,316:     78  86  87
1720557497,316:     79  86  87
1720557497,316:     65  86  87
1720557497,316:     47  86  87
1720557497,316:     46  86  87
1720557497,316:     64  86  87
1720557497,316:     78  86  87
1720557497,316:     70  86  87
1720557497,316:     51  86  87
1720557497,316:     42  86  87
1720557497,316:     44  86  87
1720557497,316:     38  86  87
1720557497,316:      5  86  87
1720557497,316:    -46  86  87
1720557497,316:    -87  86  87
1720557497,316:   -109  86  87
1720557497,316:   -128  86  87
1720557497,348:   -159  86  87
1720557497,348:   -197  86  87
1720557497,348:   -222  86  87
1720557497,348:   -227  86  87
1720557497,348:   -231  86  87
1720557497,348:   -249  86  87
1720557497,348:   -278  86  87
1720557497,348:   -297  86  87
1720557497,348:   -298  86  87
1720557497,348:   -294  86  87
1720557497,348:   -302  86  87
1720557497,348:   -319  86  87
1720557497,348:   -324  86  87
1720557497,348:   -308  86  87
1720557497,348:   -289  86  87
1720557497,412:   -288  86  87
1720557497,413:   -308  86  87
1720557497,413:   -324  86  87
1720557497,413:   -316  86  87
1720557497,413:   -292  86  87
1720557497,413:   -276  86  87
1720557497,413:   -278  86  87
1720557497,413:   -283  86  87
1720557497,413:   -269  86  87
1720557497,413:   -244  86  87
1720557497,413:   -232  86  87
1720557497,413:   -244  86  87
1720557497,413:   -258  86  87
1720557497,413:   -248  86  87
1720557497,413:   -220  86  87
1720557497,441:   -203  86  87
1720557497,441:   -210  86  87
1720557497,441:   -219  86  87
1720557497,441:   -206  86  87
1720557497,441:   -173  86  87
1720557497,441:   -152  86  87
1720557497,441:   -161  86  87
1720557497,441:   -180  86  87
1720557497,441:   -178  86  87
1720557497,441:   -154  86  87
1720557497,441:   -134  86  87
1720557497,441:   -138  86  87
1720557497,441:   -151  86  87
1720557497,441:   -147  86  87
1720557497,441:   -125  86  87
1720557497,441:   -112  86  87
1720557497,441:   -123  86  87
1720557497,441:   -141  86  87
1720557497,441:   -139  86  87
1720557497,441:   -113  86  87
1720557497,441:    -85  86  87
1720557497,441:    -75  86  87
1720557497,441:    -77  86  87
1720557497,441:    -71  86  87
1720557497,441:    -51  86  87
1720557497,441:    -37  86  87
1720557497,441:    -46  86  87
1720557497,441:    -68  86  87
1720557497,441:    -79  86  87
1720557497,441:    -72  86  87
1720557497,473:    -62  86  87
1720557497,473:    -68  86  87
1720557497,473:    -84  86  87
1720557497,473:    -85  86  87
1720557497,473:    -63  86  87
1720557497,473:    -41  86  87
1720557497,473:    -44  86  87
1720557497,473:    -65  86  87
1720557497,473:    -76  86  87
1720557497,473:    -61  86  87
1720557497,473:    -40  86  87
1720557497,473:    -40  86  87
1720557497,473:    -63  86  87
1720557497,473:    -77  86  87
1720557497,473:    -60  86  87
1720557497,499:    -32  86  87
1720557497,499:    -25  86  87
1720557497,500:    -47  86  87
1720557497,500:    -65  86  87
1720557497,500:    -51  86  87
1720557497,500:    -17  86  87
1720557497,500:      3  86  87
1720557497,500:     -8  86  87
1720557497,500:    -29  86  87
1720557497,500:    -32  86  87
1720557497,500:    -16  86  87
1720557497,500:     -9  86  87
1720557497,500:    -22  86  87
1720557497,500:    -41  86  87
1720557497,500:    -43  86  87
1720557497,531:    -30  86  87
1720557497,531:    -20  86  87
1720557497,531:    -25  86  87
1720557497,531:    -29  86  87
1720557497,531:    -16  86  87
1720557497,531:      8  86  87
1720557497,531:     16  86  87
1720557497,531:     -6  86  87
1720557497,531:    -37  86  87
1720557497,531:    -47  86  87
1720557497,531:    -31  86  87
1720557497,531:    -16  86  87
1720557497,531:    -21  86  87
1720557497,531:    -38  86  87
1720557497,531:    -41  86  87
1720557497,574:    -24  86  87
1720557497,574:    -10  86  87
1720557497,574:    -19  86  87
1720557497,574:    -40  86  87
1720557497,574:    -44  86  87
1720557497,574:    -25  86  87
1720557497,574:     -6  86  87
1720557497,574:    -13  86  87
1720557497,574:    -34  86  87
1720557497,574:    -36  86  87
1720557497,574:    -10  86  87
1720557497,574:     17  86  87
1720557497,574:     11  86  87
1720557497,574:    -22  86  87
1720557497,574:    -44  86  87
1720557497,574:    -34  86  87
1720557497,574:     -8  86  87
1720557497,574:      1  86  87
1720557497,574:    -11  86  87
1720557497,574:    -19  86  87
1720557497,574:     -2  86  87
1720557497,574:     23  86  87
1720557497,611:     28  86  87
1720557497,611:     14  86  87
1720557497,611:      9  86  87
1720557497,611:     30  86  87
1720557497,611:     60  86  87
1720557497,611:     69  86  87
1720557497,611:     58  86  87
1720557497,611:     56  86  87
1720557497,611:     81  86  87
1720557497,611:    111  86  87
1720557497,611:    110  86  87
1720557497,611:     76  86  87
1720557497,611:     47  86  87
1720557497,611:     52  86  87
1720557497,611:     77  86  87
1720557497,643:     85  86  87
1720557497,643:     62  86  87
1720557497,643:     42  86  87
1720557497,643:     61  86  87
1720557497,643:    111  86  87
1720557497,643:    156  86  87
1720557497,643:    171  86  87
1720557497,643:    176  86  87
1720557497,643:    200  86  87
1720557497,643:    242  86  87
1720557497,643:    272  86  87
1720557497,643:    271  86  87
1720557497,643:    251  86  87
1720557497,643:    238  86  87
1720557497,643:    234  86  87
1720557497,643:    215  86  87
1720557497,643:    170  86  87
1720557497,643:    119  86  87
1720557497,643:     94  86  87
1720557497,643:     98  86  87
1720557497,643:    102  86  87
1720557497,643:     82  86  87
1720557497,643:     45  86  87
1720557497,681:     20  86  87
1720557497,681:     16  86  87
1720557497,681:     12  86  87
1720557497,681:    -17  86  87
1720557497,681:    -65  86  87
1720557497,681:   -104  86  87
1720557497,681:   -116  86  87
1720557497,681:   -110  86  87
1720557497,681:   -107  86  87
1720557497,681:   -111  86  87
1720557497,681:   -106  86  87
1720557497,681:    -87  86  87
1720557497,681:    -68  86  87
1720557497,681:    -69  86  87
1720557497,681:    -86  86  87
1720557497,707:    -96  86  87
1720557497,707:    -88  86  87
1720557497,707:    -75  86  87
1720557497,707:    -77  86  87
1720557497,707:    -95  86  87
1720557497,707:   -105  86  87
1720557497,707:    -90  86  87
1720557497,707:    -62  86  87
1720557497,707:    -50  86  87
1720557497,707:    -62  86  87
1720557497,707:    -77  86  87
1720557497,707:    -74  86  87
1720557497,707:    -56  86  87
1720557497,707:    -43  86  87
1720557497,707:    -47  86  87
1720557497,755:    -52  86  87
1720557497,755:    -45  86  87
1720557497,755:    -32  86  87
1720557497,755:    -30  86  87
1720557497,755:    -45  86  87
1720557497,755:    -57  86  87
1720557497,755:    -49  86  87
1720557497,755:    -27  86  87
1720557497,755:    -10  86  87
1720557497,755:    -10  86  87
1720557497,755:    -11  86  87
1720557497,755:     11  86  87
1720557497,755:     55  86  87
1720557497,755:     98  86  87
1720557497,755:    113  86  87
1720557497,755:     87  86  87
1720557497,755:     33  86  87
1720557497,755:    -22  86  87
1720557497,755:    -48  86  87
1720557497,755:    -51  86  87
1720557497,755:    -70  86  87
1720557497,755:   -146  86  87
1720557497,790:   -263  86  87
1720557497,790:   -334  86  87
1720557497,790:   -262  86  87
1720557497,790:    -27  86  87
1720557497,790:    336  86  87
1720557497,790:    850  86  87
1720557497,790:   1636  86  87
1720557497,790:   2770  86  87
1720557497,790:   4094  86  87
1720557497,790:   5266  86  87
1720557497,790:   6052  86  87
1720557497,790:   6537  86  87
1720557497,790:   6964  86  87
1720557497,790:   7339  86  87
1720557497,790:   7287  86  87
1720557497,837:   6410  85  86
1720557497,837:   4763  85  86
1720557497,837:   2910  85  86
1720557497,837:   1444  85  86
1720557497,837:    506  85  86
1720557497,837:   -213  85  86
1720557497,837:  -1014  85  86
1720557497,837:  -1837  85  86
1720557497,837:  -2352  85  86
1720557497,837:  -2328  85  86
1720557497,837:  -1875  85  86
1720557497,837:  -1318  85  86
1720557497,837:   -924  85  86
1720557497,837:   -757  85  86
1720557497,837:   -733  85  86
1720557497,837:   -753  85  86
1720557497,837:   -779  85  86
1720557497,837:   -812  85  86
1720557497,837:   -853  85  86
1720557497,837:   -887  85  86
1720557497,837:   -907  85  86
1720557497,837:   -927  85  86
1720557497,837:   -957  85  86
1720557497,872:   -986  85  86
1720557497,872:   -990  85  86
1720557497,872:   -961  85  86
1720557497,872:   -926  85  86
1720557497,872:   -927  85  86
1720557497,872:   -973  85  86
1720557497,872:  -1019  85  86
1720557497,872:  -1018  85  86
1720557497,872:   -969  85  86
1720557497,872:   -907  85  86
1720557497,872:   -856  85  86
1720557497,872:   -802  85  86
1720557497,872:   -731  85  86
1720557497,872:   -659  85  86
1720557497,872:   -627  85  86
1720557497,872:   -647  85  86
1720557497,872:   -687  85  86
1720557497,872:   -698  85  86
1720557497,872:   -670  85  86
1720557497,872:   -627  85  86
1720557497,872:   -595  85  86
1720557497,872:   -568  85  86
1720557497,872:   -530  85  86
1720557497,872:   -488  85  86
1720557497,872:   -466  85  86
1720557497,872:   -476  85  86
1720557497,872:   -496  85  86
1720557497,872:   -491  85  86
1720557497,872:   -456  85  86
1720557497,872:   -417  85  86
1720557497,901:   -396  85  86
1720557497,901:   -388  85  86
1720557497,901:   -368  85  86
1720557497,901:   -333  85  86
1720557497,901:   -303  85  86
1720557497,901:   -300  85  86
1720557497,901:   -316  85  86
1720557497,939:   -319  85  86
1720557497,939:   -294  85  86
1720557497,939:   -258  85  86
1720557497,939:   -236  85  86
1720557497,939:   -231  85  86
1720557497,939:   -221  85  86
1720557497,939:   -195  85  86
1720557497,939:   -164  85  86
1720557497,939:   -151  85  86
1720557497,939:   -157  85  86
1720557497,939:   -160  85  86
1720557497,939:   -144  85  86
1720557497,939:   -118  85  86
1720557497,939:   -101  85  86
1720557497,939:    -98  85  86
1720557498,006:    -90  85  86
1720557498,006:    -63  85  86
1720557498,006:    -29  85  86
1720557498,006:    -12  85  86
1720557498,006:    -18  85  86
1720557498,006:    -25  85  86
1720557498,006:    -14  85  86
1720557498,006:     12  85  86
1720557498,006:     30  85  86
1720557498,006:     34  85  86
1720557498,006:     37  85  86
1720557498,006:     57  85  86
1720557498,006:     86  85  86
1720557498,006:    103  85  86
1720557498,006:    101  85  86
1720557498,006:    100  85  86
1720557498,006:    118  85  86
1720557498,006:    149  85  86
1720557498,006:    168  85  86
1720557498,006:    164  85  86
1720557498,006:    155  85  86
1720557498,006:    164  85  86
1720557498,006:    186  85  86
1720557498,006:    196  85  86
1720557498,006:    175  85  86
1720557498,006:    143  85  86
1720557498,006:    130  85  86
1720557498,006:    139  85  86
1720557498,006:    145  85  86
1720557498,006:    128  85  86
1720557498,006:    100  85  86
1720557498,006:     90  85  86
1720557498,006:    105  85  86
1720557498,006:    117  85  86
1720557498,006:     97  85  86
1720557498,006:     58  85  86
1720557498,006:     38  85  86
1720557498,006:     56  85  86
1720557498,054:     86  85  86
1720557498,054:     91  85  86
1720557498,054:     70  85  86
1720557498,054:     53  85  86
1720557498,054:     64  85  86
1720557498,054:     86  85  86
1720557498,054:     87  85  86
1720557498,054:     59  85  86
1720557498,054:     29  85  86
1720557498,054:     20  85  86
1720557498,054:     21  85  86
1720557498,054:     10  85  86
1720557498,054:    -21  85  86
1720557498,054:    -50  85  86
1720557498,054:    -61  85  86
1720557498,054:    -67  85  86
1720557498,054:    -91  85  86
1720557498,054:   -135  85  86
1720557498,054:   -173  85  86
1720557498,054:   -184  85  86
1720557498,054:   -179  85  86
1720557498,054:   -188  85  86
1720557498,091:   -215  85  86
1720557498,091:   -237  85  86
1720557498,091:   -232  85  86
1720557498,091:   -214  85  86
1720557498,091:   -217  85  86
1720557498,091:   -252  85  86
1720557498,091:   -290  85  86
1720557498,091:   -297  85  86
1720557498,091:   -277  85  86
1720557498,091:   -263  85  86
1720557498,091:   -275  85  86
1720557498,091:   -292  85  86
1720557498,091:   -286  85  86
1720557498,091:   -258  85  86
1720557498,091:   -237  85  86
1720557498,091:   -245  85  86
1720557498,091:   -263  85  86
1720557498,091:   -263  85  86
1720557498,091:   -242  85  86
1720557498,091:   -225  85  86
1720557498,091:   -230  85  86
1720557498,091:   -240  85  86
1720557498,091:   -230  85  86
1720557498,142:   -200  85  86
1720557498,142:   -180  85  86
1720557498,142:   -189  85  86
1720557498,142:   -209  85  86
1720557498,142:   -208  85  86
1720557498,142:   -178  85  86
1720557498,142:   -147  85  86
1720557498,142:   -139  85  86
1720557498,142:   -146  85  86
1720557498,142:   -140  85  86
1720557498,142:   -113  85  86
1720557498,142:    -90  85  86
1720557498,142:    -93  85  86
1720557498,142:   -111  85  86
1720557498,142:   -116  85  86
1720557498,142:    -95  85  86
1720557498,142:    -69  85  86
1720557498,142:    -64  85  86
1720557498,142:    -74  85  86
1720557498,142:    -72  85  86
1720557498,142:    -45  85  86
1720557498,142:    -16  85  86
1720557498,142:    -16  85  86
1720557498,142:    -43  85  86
1720557498,142:    -60  85  86
1720557498,142:    -45  85  86
1720557498,142:    -16  85  86
1720557498,173:     -8  85  86
1720557498,173:    -24  85  86
1720557498,173:    -33  85  86
1720557498,173:    -15  85  86
1720557498,173:     13  85  86
1720557498,173:     16  85  86
1720557498,173:     -9  85  86
1720557498,173:    -29  85  86
1720557498,173:    -20  85  86
1720557498,173:      3  85  86
1720557498,173:      7  85  86
1720557498,173:    -17  85  86
1720557498,173:    -39  85  86
1720557498,173:    -31  85  86
1720557498,173:     -7  85  86
1720557498,198:      0  85  86
1720557498,198:    -19  85  86
1720557498,198:    -42  85  86
1720557498,198:    -42  85  86
1720557498,198:    -24  85  86
1720557498,198:    -14  85  86
1720557498,198:    -22  85  86
1720557498,198:    -34  85  86
1720557498,198:    -30  85  86
1720557498,198:    -19  85  86
1720557498,198:    -23  85  86
1720557498,198:    -45  85  86
1720557498,198:    -64  85  86
1720557498,198:    -60  85  86
1720557498,198:    -41  85  86
1720557498,232:    -34  85  86
1720557498,232:    -48  85  86
1720557498,232:    -61  85  86
1720557498,232:    -51  85  86
1720557498,232:    -22  85  86
1720557498,232:     -8  85  86
1720557498,232:    -24  85  86
1720557498,232:    -48  85  86
1720557498,232:    -49  85  86
1720557498,232:    -24  85  86
1720557498,232:     -2  85  86
1720557498,232:     -9  85  86
1720557498,232:    -31  85  86
1720557498,232:    -36  85  86
1720557498,232:    -15  85  86
1720557498,232:      5  85  86
1720557498,232:     -2  85  86
1720557498,232:    -30  85  86
1720557498,232:    -47  85  86
1720557498,232:    -37  85  86
1720557498,232:    -15  85  86
1720557498,232:     -8  85  86
1720557498,277:    -17  85  86
1720557498,277:    -22  85  86
1720557498,277:    -11  85  86
1720557498,277:      2  85  86
1720557498,277:     -1  85  86
1720557498,277:    -20  85  86
1720557498,277:    -31  85  86
1720557498,277:    -24  85  86
1720557498,277:    -12  85  86
1720557498,277:    -12  85  86
1720557498,277:    -22  85  86
1720557498,277:    -22  85  86
1720557498,277:     -3  85  86
1720557498,277:     18  85  86
1720557498,277:     23  85  86
1720557498,277:     15  85  86
1720557498,277:     18  85  86
1720557498,277:     42  85  86
1720557498,277:     70  85  86
1720557498,277:     82  85  86
1720557498,277:     74  85  86
1720557498,277:     69  85  86
1720557498,277:     81  85  86
1720557498,314:     96  85  86
1720557498,314:     92  85  86
1720557498,314:     61  85  86
1720557498,314:     28  85  86
1720557498,314:     17  85  86
1720557498,314:     32  85  86
1720557498,314:     51  85  86
1720557498,314:     60  85  86
1720557498,314:     70  85  86
1720557498,314:     97  85  86
1720557498,314:    139  85  86
1720557498,314:    172  85  86
1720557498,314:    181  85  86
1720557498,314:    177  85  86
1720557498,314:    183  85  86
1720557498,341:    203  85  86
1720557498,341:    211  85  86
1720557498,341:    191  85  86
1720557498,341:    156  85  86
1720557498,341:    135  85  86
1720557498,341:    135  85  86
1720557498,341:    133  85  86
1720557498,341:    111  85  86
1720557498,341:     79  85  86
1720557498,341:     64  85  86
1720557498,341:     64  85  86
1720557498,341:     54  85  86
1720557498,341:     17  85  86
1720557498,341:    -27  85  86
1720557498,341:    -46  85  86
1720557498,422:    -42  85  86
1720557498,422:    -50  85  86
1720557498,422:    -92  85  86
1720557498,422:   -146  85  86
1720557498,422:   -170  85  86
1720557498,422:   -152  85  86
1720557498,422:   -120  85  86
1720557498,422:   -110  85  86
1720557498,422:   -119  85  86
1720557498,422:   -120  85  86
1720557498,422:   -100  85  86
1720557498,422:    -77  85  86
1720557498,422:    -76  85  86
1720557498,422:    -94  85  86
1720557498,422:   -105  85  86
1720557498,422:    -92  85  86
1720557498,422:    -69  85  86
1720557498,422:    -63  85  86
1720557498,422:    -76  85  86
1720557498,422:    -84  85  86
1720557498,422:    -67  85  86
1720557498,422:    -37  85  86
1720557498,495:    -24  85  86
1720557498,495:    -38  85  86
1720557498,495:    -55  85  86
1720557498,495:    -48  85  86
1720557498,495:    -22  85  86
1720557498,495:     -4  85  86
1720557498,495:    -11  85  86
1720557498,495:    -24  85  86
1720557498,495:    -17  85  86
1720557498,495:      7  85  86
1720557498,495:     17  85  86
1720557498,495:     -6  85  86
1720557498,495:    -35  85  86
1720557498,495:    -32  85  86
1720557498,495:      2  85  86
1720557498,495:     31  85  86
1720557498,495:     34  85  86
1720557498,495:     34  85  86
1720557498,495:     72  85  86
1720557498,495:    135  85  86
1720557498,495:    159  85  86
1720557498,495:    107  85  86
1720557498,495:     23  85  86
1720557498,495:     -9  85  86
1720557498,495:     18  85  86
1720557498,495:     20  85  86
1720557498,495:    -80  85  86
1720557498,495:   -235  85  86
1720557498,495:   -296  85  86
1720557498,495:   -162  85  86
1720557498,495:    119  85  86
1720557498,495:    460  85  86
1720557498,495:    921  85  86
1720557498,495:   1693  85  86
1720557498,495:   2851  85  86
1720557498,495:   4161  85  86
1720557498,495:   5228  85  86
1720557498,495:   5873  85  86
1720557498,495:   6287  85  86
1720557498,495:   6727  85  86
1720557498,495:   7102  85  86
1720557498,495:   6957  85  86
1720557498,495:   5949  85  86
1720557498,495:   4275  85  86
1720557498,495:   2555  85  86
1720557498,536:   1279  87  86
1720557498,536:    440  87  86
1720557498,536:   -291  87  86
1720557498,536:  -1103  87  86
1720557498,536:  -1836  87  86
1720557498,536:  -2196  87  86
1720557498,536:  -2079  87  86
1720557498,536:  -1654  87  86
1720557498,536:  -1185  87  86
1720557498,536:   -840  87  86
1720557498,536:   -663  87  86
1720557498,536:   -628  87  86
1720557498,536:   -677  87  86
1720557498,536:   -735  87  86
1720557498,536:   -751  87  86
1720557498,536:   -737  87  86
1720557498,536:   -740  87  86
1720557498,536:   -792  87  86
1720557498,536:   -862  87  86
1720557498,536:   -897  87  86
1720557498,536:   -880  87  86
1720557498,536:   -850  87  86
1720557498,536:   -843  87  86
1720557498,576:   -859  87  86
1720557498,576:   -878  87  86
1720557498,576:   -890  87  86
1720557498,576:   -900  87  86
1720557498,576:   -910  87  86
1720557498,576:   -903  87  86
1720557498,576:   -859  87  86
1720557498,576:   -783  87  86
1720557498,576:   -703  87  86
1720557498,576:   -651  87  86
1720557498,576:   -629  87  86
1720557498,576:   -622  87  86
1720557498,576:   -618  87  86
1720557498,576:   -623  87  86
1720557498,576:   -638  87  86
1720557498,576:   -648  87  86
1720557498,576:   -631  87  86
1720557498,576:   -582  87  86
1720557498,576:   -523  87  86
1720557498,576:   -479  87  86
1720557498,576:   -455  87  86
1720557498,576:   -438  87  86
1720557498,576:   -420  87  86
1720557498,576:   -408  87  86
1720557498,576:   -410  87  86
1720557498,576:   -415  87  86
1720557498,576:   -402  87  86
1720557498,576:   -368  87  86
1720557498,576:   -337  87  86
1720557498,576:   -327  87  86
1720557498,611:   -333  87  86
1720557498,611:   -328  87  86
1720557498,611:   -300  87  86
1720557498,611:   -269  87  86
1720557498,611:   -259  87  86
1720557498,611:   -265  87  86
1720557498,611:   -259  87  86
1720557498,611:   -224  87  86
1720557498,611:   -180  87  86
1720557498,611:   -155  87  86
1720557498,611:   -153  87  86
1720557498,611:   -150  87  86
1720557498,611:   -128  87  86
1720557498,611:    -98  87  86
1720557498,611:    -86  87  86
1720557498,647:    -93  87  86
1720557498,647:    -96  87  86
1720557498,647:    -75  87  86
1720557498,647:    -41  87  86
1720557498,647:    -20  87  86
1720557498,647:    -21  87  86
1720557498,647:    -27  87  86
1720557498,647:    -16  87  86
1720557498,647:      8  87  86
1720557498,647:     25  87  86
1720557498,647:     20  87  86
1720557498,647:      7  87  86
1720557498,647:      5  87  86
1720557498,647:     19  87  86
1720557498,647:     37  87  86
1720557498,647:     49  87  86
1720557498,647:     58  87  86
1720557498,647:     72  87  86
1720557498,647:     90  87  86
1720557498,647:     97  87  86
1720557498,647:     89  87  86
1720557498,647:     83  87  86
1720557498,686:     92  87  86
1720557498,686:    113  87  86
1720557498,686:    127  87  86
1720557498,686:    124  87  86
1720557498,686:    118  87  86
1720557498,686:    127  87  86
1720557498,686:    149  87  86
1720557498,686:    161  87  86
1720557498,686:    150  87  86
1720557498,686:    126  87  86
1720557498,686:    113  87  86
1720557498,686:    116  87  86
1720557498,686:    118  87  86
1720557498,686:    103  87  86
1720557498,686:     81  87  86
1720557498,718:     74  87  86
1720557498,718:     84  87  86
1720557498,718:     93  87  86
1720557498,718:     79  87  86
1720557498,718:     52  87  86
1720557498,718:     38  87  86
1720557498,718:     48  87  86
1720557498,718:     64  87  86
1720557498,718:     65  87  86
1720557498,718:     53  87  86
1720557498,718:     48  87  86
1720557498,718:     56  87  86
1720557498,718:     63  87  86
1720557498,718:     48  87  86
1720557498,718:     13  87  86
1720557498,755:    -19  87  86
1720557498,755:    -35  87  86
1720557498,755:    -50  87  86
1720557498,755:    -82  87  86
