timestamp: ADC HeartRate4sAverage HeartRate30sAverage
1720434454,631:    -15  91  92
1720434454,631:    -16  91  92
1720434454,631:    -15  91  92
1720434454,631:    -12  91  92
1720434454,631:     -9  91  92
1720434454,631:     -5  91  92
1720434454,631:      2  91  92
1720434454,663:     13  91  92
1720434454,663:     25  91  92
1720434454,663:     34  91  92
1720434454,663:     35  91  92
1720434454,663:     26  91  92
1720434454,663:     15  91  92
1720434454,663:      7  91  92
1720434454,663:      5  91  92
1720434454,663:      6  91  92
1720434454,663:      2  91  92
1720434454,663:     -7  91  92
1720434454,663:    -15  91  92
1720434454,663:    -14  91  92
1720434454,663:     -6  91  92
1720434454,663:      3  91  92
1720434454,693:      8  91  92
1720434454,693:      9  91  92
1720434454,693:      9  91  92
1720434454,693:      8  91  92
1720434454,693:      6  91  92
1720434454,693:      1  91  92
1720434454,693:     -5  91  92
1720434454,693:    -11  91  92
1720434454,693:    -15  91  92
1720434454,693:    -17  91  92
1720434454,693:    -17  91  92
1720434454,693:    -16  91  92
1720434454,693:    -15  91  92
1720434454,693:    -13  91  92
1720434454,693:    -11  91  92
1720434454,693:    -10  91  92
1720434454,693:     -9  91  92
1720434454,693:    -10  91  92
1720434454,693:    -10  91  92
1720434454,693:    -10  91  92
1720434454,693:    -10  91  92
1720434454,693:    -13  91  92
1720434454,693:    -18  91  92
1720434454,723:    -21  91  92
1720434454,723:    -18  91  92
1720434454,723:    -13  91  92
1720434454,723:    -12  91  92
1720434454,723:    -19  91  92
1720434454,723:    -31  91  92
1720434454,723:    -42  91  92
1720434454,753:    -49  91  92
1720434454,753:    -51  91  92
1720434454,753:    -51  91  92
1720434454,753:    -53  91  92
1720434454,753:    -59  91  92
1720434454,753:    -66  91  92
1720434454,753:    -69  91  92
1720434454,753:    -64  91  92
1720434454,753:    -59  91  92
1720434454,753:    -65  91  92
1720434454,753:    -83  91  92
1720434454,753:   -101  91  92
1720434454,753:   -110  91  92
1720434454,753:   -117  91  92
1720434454,753:   -132  91  92
1720434454,753:   -149  91  92
1720434454,753:   -151  91  92
1720434454,753:   -124  91  92
1720434454,753:    -82  91  92
1720434454,753:    -51  91  92
1720434454,753:    -42  91  92
1720434454,753:    -41  91  92
1720434454,753:    -28  91  92
1720434454,784:     -5  91  92
1720434454,784:     10  91  92
1720434454,784:      2  91  92
1720434454,784:    -21  91  92
1720434454,784:    -41  91  92
1720434454,784:    -48  91  92
1720434454,784:    -46  91  92
1720434454,784:    -41  91  92
1720434454,784:    -31  91  92
1720434454,784:    -13  91  92
1720434454,784:      8  91  92
1720434454,784:     23  91  92
1720434454,784:     27  91  92
1720434454,784:     22  91  92
1720434454,784:     14  91  92
1720434454,816:      5  91  92
1720434454,816:     -9  91  92
1720434454,816:    -28  91  92
1720434454,816:    -49  91  92
1720434454,816:    -67  91  92
1720434454,816:    -78  91  92
1720434454,816:    -83  91  92
1720434454,816:    -80  91  92
1720434454,816:    -70  91  92
1720434454,816:    -56  91  92
1720434454,816:    -44  91  92
1720434454,816:    -37  91  92
1720434454,816:    -33  91  92
1720434454,816:    -28  91  92
1720434454,816:    -25  91  92
1720434454,848:    -26  91  92
1720434454,848:    -33  91  92
1720434454,848:    -39  91  92
1720434454,848:    -44  91  92
1720434454,848:    -53  91  92
1720434454,848:    -72  91  92
1720434454,848:    -95  91  92
1720434454,848:   -102  91  92
1720434454,848:    -85  91  92
1720434454,848:    -49  91  92
1720434454,848:     -9  91  92
1720434454,848:     26  91  92
1720434454,848:     57  91  92
1720434454,848:     83  91  92
1720434454,848:     78  91  92
1720434454,879:     12  91  92
1720434454,879:   -134  91  92
1720434454,879:   -358  91  92
1720434454,879:   -654  91  92
1720434454,879:  -1009  91  92
1720434454,879:  -1373  91  92
1720434454,879:  -1643  91  92
1720434454,879:  -1693  91  92
1720434454,879:  -1447  91  92
1720434454,879:   -902  91  92
1720434454,879:    -72  91  92
1720434454,879:   1078  91  92
1720434454,879:   2601  91  92
1720434454,879:   4454  91  92
1720434454,879:   6427  91  92
1720434454,879:   8221  91  92
1720434454,879:   9593  91  92
1720434454,879:  10449  91  92
1720434454,879:  10810  91  92
1720434454,879:  10724  91  92
1720434454,879:  10216  91  92
1720434454,879:   9301  91  92
1720434454,911:   8025  90  91
1720434454,911:   6491  90  91
1720434454,911:   4877  90  91
1720434454,911:   3398  90  91
1720434454,911:   2221  90  91
1720434454,911:   1371  90  91
1720434454,911:    734  90  91
1720434454,911:    168  90  91
1720434454,942:   -376  90  91
1720434454,942:   -841  90  91
1720434454,942:  -1170  90  91
1720434454,942:  -1389  90  91
1720434454,942:  -1587  90  91
1720434454,942:  -1830  90  91
1720434454,942:  -2102  90  91
1720434454,942:  -2339  90  91
1720434454,942:  -2496  90  91
1720434454,942:  -2569  90  91
1720434454,942:  -2575  90  91
1720434454,942:  -2542  90  91
1720434454,973:  -2494  90  91
1720434454,973:  -2454  90  91
1720434454,973:  -2439  90  91
1720434454,973:  -2450  90  91
1720434454,973:  -2473  90  91
1720434454,973:  -2489  90  91
1720434454,973:  -2480  90  91
1720434454,973:  -2438  90  91
1720434454,973:  -2368  90  91
1720434454,973:  -2287  90  91
1720434454,973:  -2213  90  91
1720434454,973:  -2152  90  91
1720434454,973:  -2099  90  91
1720434454,973:  -2052  90  91
1720434454,973:  -2012  90  91
1720434454,973:  -1979  90  91
1720434454,973:  -1947  90  91
1720434454,973:  -1909  90  91
1720434454,973:  -1860  90  91
1720434454,973:  -1803  90  91
1720434454,973:  -1748  90  91
1720434454,973:  -1702  90  91
1720434455,004:  -1666  90  91
1720434455,004:  -1634  90  91
1720434455,004:  -1602  90  91
1720434455,004:  -1568  90  91
1720434455,004:  -1537  90  91
1720434455,004:  -1509  90  91
1720434455,004:  -1483  90  91
1720434455,004:  -1454  90  91
1720434455,004:  -1419  90  91
1720434455,004:  -1381  90  91
1720434455,004:  -1349  90  91
1720434455,004:  -1326  90  91
1720434455,004:  -1312  90  91
1720434455,004:  -1298  90  91
1720434455,004:  -1279  90  91
1720434455,036:  -1255  90  91
1720434455,036:  -1234  90  91
1720434455,036:  -1223  90  91
1720434455,036:  -1220  90  91
1720434455,036:  -1216  90  91
1720434455,036:  -1206  90  91
1720434455,036:  -1191  90  91
1720434455,036:  -1180  90  91
1720434455,036:  -1175  90  91
1720434455,036:  -1173  90  91
1720434455,036:  -1171  90  91
1720434455,036:  -1169  90  91
1720434455,036:  -1169  90  91
1720434455,036:  -1171  90  91
1720434455,036:  -1171  90  91
1720434455,036:  -1169  90  91
1720434455,036:  -1165  90  91
1720434455,036:  -1163  90  91
1720434455,036:  -1163  90  91
1720434455,036:  -1158  90  91
1720434455,036:  -1148  90  91
1720434455,036:  -1135  90  91
1720434455,036:  -1122  90  91
1720434455,067:  -1107  90  91
1720434455,067:  -1086  90  91
1720434455,067:  -1060  90  91
1720434455,067:  -1030  90  91
1720434455,067:  -1001  90  91
1720434455,067:   -970  90  91
1720434455,067:   -937  90  91
1720434455,067:   -901  90  91
1720434455,067:   -863  90  91
1720434455,067:   -824  90  91
1720434455,067:   -785  90  91
1720434455,067:   -748  90  91
1720434455,067:   -717  90  91
1720434455,067:   -687  90  91
1720434455,067:   -653  90  91
1720434455,097:   -612  90  91
1720434455,097:   -575  90  91
1720434455,097:   -547  90  91
1720434455,097:   -526  90  91
1720434455,097:   -499  90  91
1720434455,097:   -461  90  91
1720434455,097:   -417  90  91
1720434455,097:   -378  90  91
1720434455,097:   -349  90  91
1720434455,097:   -321  90  91
1720434455,097:   -288  90  91
1720434455,097:   -252  90  91
1720434455,097:   -216  90  91
1720434455,097:   -182  90  91
1720434455,097:   -144  90  91
1720434455,129:   -103  90  91
1720434455,129:    -64  90  91
1720434455,129:    -30  90  91
1720434455,129:      1  90  91
1720434455,129:     37  90  91
1720434455,129:     79  90  91
1720434455,129:    120  90  91
1720434455,129:    154  90  91
1720434455,129:    181  90  91
1720434455,129:    207  90  91
1720434455,129:    233  90  91
1720434455,129:    255  90  91
1720434455,129:    272  90  91
1720434455,129:    285  90  91
1720434455,129:    297  90  91
1720434455,159:    309  90  91
1720434455,159:    319  90  91
1720434455,159:    325  90  91
1720434455,159:    328  90  91
1720434455,159:    331  90  91
1720434455,159:    334  90  91
1720434455,159:    335  90  91
1720434455,159:    332  90  91
1720434455,159:    327  90  91
1720434455,159:    323  90  91
1720434455,159:    322  90  91
1720434455,159:    321  90  91
1720434455,159:    317  90  91
1720434455,159:    308  90  91
1720434455,159:    297  90  91
1720434455,190:    288  90  91
1720434455,190:    279  90  91
1720434455,190:    267  90  91
1720434455,190:    254  90  91
1720434455,190:    243  90  91
1720434455,190:    240  90  91
1720434455,190:    241  90  91
1720434455,221:    241  90  91
1720434455,221:    235  90  91
1720434455,221:    228  90  91
1720434455,221:    225  90  91
1720434455,221:    223  90  91
1720434455,221:    218  90  91
1720434455,221:    206  90  91
1720434455,221:    192  90  91
1720434455,221:    185  90  91
1720434455,221:    185  90  91
1720434455,221:    186  90  91
1720434455,221:    182  90  91
1720434455,221:    176  90  91
1720434455,221:    171  90  91
1720434455,221:    169  90  91
1720434455,221:    165  90  91
1720434455,221:    157  90  91
1720434455,221:    149  90  91
1720434455,221:    145  90  91
1720434455,221:    142  90  91
1720434455,221:    131  90  91
1720434455,221:    110  90  91
1720434455,221:     91  90  91
1720434455,252:     83  90  91
1720434455,252:     88  90  91
1720434455,252:     92  90  91
1720434455,252:     86  90  91
1720434455,252:     74  90  91
1720434455,252:     68  90  91
1720434455,252:     71  90  91
1720434455,252:     75  90  91
1720434455,252:     72  90  91
1720434455,252:     59  90  91
1720434455,252:     46  90  91
1720434455,252:     39  90  91
1720434455,252:     36  90  91
1720434455,252:     33  90  91
1720434455,252:     31  90  91
1720434455,283:     31  90  91
1720434455,283:     33  90  91
1720434455,283:     33  90  91
1720434455,283:     29  90  91
1720434455,283:     22  90  91
1720434455,283:     18  90  91
1720434455,283:     20  90  91
1720434455,283:     23  90  91
1720434455,283:     21  90  91
1720434455,283:     13  90  91
1720434455,283:      3  90  91
1720434455,283:     -1  90  91
1720434455,283:      4  90  91
1720434455,283:     13  90  91
1720434455,283:     19  90  91
1720434455,314:     20  90  91
1720434455,314:     21  90  91
1720434455,314:     26  90  91
1720434455,314:     32  90  91
1720434455,314:     33  90  91
1720434455,314:     31  90  91
1720434455,314:     29  90  91
1720434455,314:     34  90  91
1720434455,314:     39  90  91
1720434455,314:     36  90  91
1720434455,314:     25  90  91
1720434455,314:     14  90  91
1720434455,314:     15  90  91
1720434455,314:     25  90  91
1720434455,314:     35  90  91
1720434455,345:     36  90  91
1720434455,345:     31  90  91
1720434455,345:     30  90  91
1720434455,345:     35  90  91
1720434455,345:     42  90  91
1720434455,345:     46  90  91
1720434455,345:     46  90  91
1720434455,345:     43  90  91
1720434455,345:     42  90  91
1720434455,345:     43  90  91
1720434455,345:     44  90  91
1720434455,345:     44  90  91
1720434455,345:     43  90  91
1720434455,345:     43  90  91
1720434455,345:     42  90  91
1720434455,345:     41  90  91
1720434455,345:     40  90  91
1720434455,345:     39  90  91
1720434455,345:     36  90  91
1720434455,345:     31  90  91
1720434455,345:     24  90  91
1720434455,345:     16  90  91
1720434455,375:      9  90  91
1720434455,375:      2  90  91
1720434455,375:     -5  90  91
1720434455,375:     -9  90  91
1720434455,375:    -14  90  91
1720434455,375:    -19  90  91
1720434455,375:    -25  90  91
1720434455,375:    -30  90  91
1720434455,406:    -33  90  91
1720434455,406:    -36  90  91
1720434455,406:    -43  90  91
1720434455,406:    -50  90  91
1720434455,406:    -53  90  91
1720434455,406:    -50  90  91
1720434455,406:    -43  90  91
1720434455,437:    -40  90  91
1720434455,437:    -42  90  91
1720434455,437:    -45  90  91
1720434455,437:    -48  90  91
1720434455,437:    -54  90  91
1720434455,437:    -66  90  91
1720434455,437:    -83  90  91
1720434455,437:    -99  90  91
1720434455,437:   -111  90  91
1720434455,437:   -116  90  91
1720434455,437:   -111  90  91
1720434455,437:    -91  90  91
1720434455,437:    -58  90  91
1720434455,437:    -21  90  91
1720434455,437:      8  90  91
1720434455,437:     26  90  91
1720434455,437:     43  90  91
1720434455,437:     62  90  91
1720434455,437:     78  90  91
1720434455,437:     80  90  91
1720434455,437:     62  90  91
1720434455,437:     34  90  91
1720434455,437:     14  90  91
1720434455,469:      6  90  91
1720434455,469:      5  90  91
1720434455,469:      7  90  91
1720434455,469:     15  90  91
1720434455,469:     32  90  91
1720434455,469:     54  90  91
1720434455,469:     68  90  91
1720434455,469:     66  90  91
1720434455,469:     53  90  91
1720434455,469:     43  90  91
1720434455,469:     38  90  91
1720434455,469:     29  90  91
1720434455,469:      9  90  91
1720434455,469:    -16  90  91
1720434455,469:    -34  90  91
1720434455,501:    -37  90  91
1720434455,501:    -30  90  91
1720434455,501:    -24  90  91
1720434455,501:    -23  90  91
1720434455,501:    -25  90  91
1720434455,501:    -29  90  91
1720434455,501:    -34  90  91
1720434455,501:    -42  90  91
1720434455,501:    -50  90  91
1720434455,501:    -59  90  91
1720434455,501:    -68  90  91
1720434455,501:    -81  90  91
1720434455,501:    -95  90  91
1720434455,501:   -103  90  91
1720434455,501:   -103  90  91
1720434455,501:    -94  90  91
1720434455,501:    -77  90  91
1720434455,501:    -55  90  91
1720434455,501:    -21  90  91
1720434455,501:     23  90  91
1720434455,501:     69  90  91
1720434455,501:     99  90  91
1720434455,532:     90  90  91
1720434455,532:     19  90  91
1720434455,532:   -120  90  91
1720434455,532:   -331  90  91
1720434455,532:   -615  90  91
1720434455,532:   -958  90  91
1720434455,532:  -1314  90  91
1720434455,532:  -1587  90  91
1720434455,532:  -1668  90  91
1720434455,532:  -1476  90  91
1720434455,532:   -988  90  91
1720434455,532:   -193  90  91
1720434455,532:    934  90  91
1720434455,532:   2424  90  91
1720434455,532:   4225  90  91
1720434455,563:   6161  90  91
1720434455,563:   7966  90  91
1720434455,563:   9401  90  91
1720434455,563:  10332  90  91
1720434455,563:  10745  90  91
1720434455,563:  10687  90  91
1720434455,563:  10211  90  91
1720434455,563:   9346  90  91
1720434455,563:   8120  90  91
1720434455,563:   6609  90  91
1720434455,563:   4983  90  91
1720434455,563:   3475  90  91
1720434455,563:   2275  90  91
1720434455,563:   1418  90  91
1720434455,563:    780  90  91
1720434455,594:    209  92  91
1720434455,594:   -341  92  91
1720434455,594:   -809  92  91
1720434455,594:  -1136  92  91
1720434455,594:  -1354  92  91
1720434455,594:  -1556  92  91
1720434455,594:  -1804  92  91
1720434455,594:  -2081  92  91
1720434455,594:  -2325  92  91
1720434455,594:  -2496  92  91
1720434455,594:  -2590  92  91
1720434455,594:  -2617  92  91
1720434455,594:  -2591  92  91
1720434455,594:  -2540  92  91
1720434455,594:  -2496  92  91
1720434455,625:  -2483  92  91
1720434455,625:  -2495  92  91
1720434455,625:  -2508  92  91
1720434455,625:  -2507  92  91
1720434455,625:  -2488  92  91
1720434455,625:  -2451  92  91
1720434455,625:  -2393  92  91
1720434455,625:  -2315  92  91
1720434455,625:  -2229  92  91
1720434455,625:  -2154  92  91
1720434455,625:  -2097  92  91
1720434455,625:  -2056  92  91
1720434455,625:  -2022  92  91
1720434455,625:  -1989  92  91
1720434455,625:  -1954  92  91
1720434455,625:  -1914  92  91
1720434455,625:  -1867  92  91
1720434455,625:  -1815  92  91
1720434455,625:  -1761  92  91
1720434455,625:  -1712  92  91
1720434455,625:  -1668  92  91
1720434455,625:  -1627  92  91
1720434455,625:  -1588  92  91
1720434455,657:  -1551  92  91
1720434455,657:  -1516  92  91
1720434455,657:  -1483  92  91
1720434455,657:  -1450  92  91
1720434455,657:  -1416  92  91
1720434455,657:  -1385  92  91
1720434455,657:  -1358  92  91
1720434455,657:  -1335  92  91
1720434455,657:  -1312  92  91
1720434455,657:  -1289  92  91
1720434455,657:  -1269  92  91
1720434455,657:  -1255  92  91
1720434455,657:  -1242  92  91
1720434455,657:  -1224  92  91
1720434455,657:  -1200  92  91
1720434455,688:  -1178  92  91
1720434455,688:  -1165  92  91
1720434455,688:  -1160  92  91
1720434455,688:  -1157  92  91
1720434455,688:  -1151  92  91
1720434455,688:  -1144  92  91
1720434455,688:  -1142  92  91
1720434455,688:  -1145  92  91
1720434455,688:  -1147  92  91
1720434455,688:  -1145  92  91
1720434455,688:  -1140  92  91
1720434455,688:  -1136  92  91
1720434455,688:  -1133  92  91
1720434455,688:  -1129  92  91
1720434455,688:  -1123  92  91
1720434455,720:  -1120  92  91
1720434455,720:  -1117  92  91
1720434455,720:  -1110  92  91
1720434455,720:  -1094  92  91
1720434455,720:  -1071  92  91
1720434455,720:  -1052  92  91
1720434455,720:  -1039  92  91
1720434455,720:  -1025  92  91
1720434455,720:   -999  92  91
1720434455,720:   -960  92  91
1720434455,720:   -920  92  91
1720434455,720:   -887  92  91
1720434455,720:   -863  92  91
1720434455,720:   -839  92  91
1720434455,720:   -811  92  91
1720434455,752:   -778  92  91
1720434455,752:   -742  92  91
1720434455,752:   -706  92  91
1720434455,752:   -669  92  91
1720434455,752:   -631  92  91
1720434455,752:   -592  92  91
1720434455,752:   -552  92  91
1720434455,752:   -511  92  91
1720434455,752:   -468  92  91
1720434455,752:   -425  92  91
1720434455,752:   -385  92  91
1720434455,752:   -347  92  91
1720434455,752:   -315  92  91
1720434455,752:   -287  92  91
1720434455,752:   -261  92  91
1720434455,784:   -233  92  91
1720434455,784:   -198  92  91
1720434455,784:   -162  92  91
1720434455,784:   -130  92  91
1720434455,784:   -104  92  91
1720434455,784:    -76  92  91
1720434455,784:    -38  92  91
1720434455,784:      8  92  91
1720434455,784:     51  92  91
1720434455,784:     84  92  91
1720434455,784:    112  92  91
1720434455,784:    143  92  91
1720434455,784:    180  92  91
1720434455,784:    213  92  91
1720434455,784:    234  92  91
1720434455,816:    250  92  91
1720434455,816:    270  92  91
1720434455,816:    294  92  91
1720434455,816:    312  92  91
1720434455,816:    318  92  91
1720434455,816:    318  92  91
1720434455,816:    324  92  91
1720434455,816:    337  92  91
1720434455,816:    345  92  91
1720434455,816:    341  92  91
1720434455,816:    333  92  91
1720434455,816:    335  92  91
1720434455,816:    345  92  91
1720434455,816:    351  92  91
1720434455,816:    341  92  91
1720434455,816:    322  92  91
1720434455,816:    307  92  91
1720434455,816:    303  92  91
1720434455,816:    304  92  91
1720434455,816:    297  92  91
1720434455,816:    282  92  91
1720434455,816:    268  92  91
1720434455,848:    261  92  91
1720434455,848:    258  92  91
1720434455,848:    254  92  91
1720434455,848:    248  92  91
1720434455,848:    243  92  91
1720434455,848:    243  92  91
1720434455,848:    245  92  91
1720434455,848:    246  92  91
1720434455,848:    243  92  91
1720434455,848:    237  92  91
1720434455,848:    231  92  91
1720434455,848:    225  92  91
1720434455,848:    222  92  91
1720434455,848:    219  92  91
1720434455,848:    212  92  91
1720434455,879:    199  92  91
1720434455,879:    184  92  91
1720434455,879:    176  92  91
1720434455,879:    175  92  91
1720434455,879:    175  92  91
1720434455,879:    167  92  91
1720434455,879:    151  92  91
1720434455,879:    133  92  91
1720434455,879:    123  92  91
1720434455,879:    120  92  91
1720434455,879:    118  92  91
1720434455,879:    111  92  91
1720434455,879:    100  92  91
1720434455,879:     88  92  91
1720434455,879:     80  92  91
1720434455,909:     76  92  91
1720434455,909:     77  92  91
1720434455,909:     80  92  91
1720434455,909:     83  92  91
1720434455,909:     80  92  91
1720434455,909:     73  92  91
1720434455,909:     64  92  91
1720434455,909:     57  92  91
1720434455,909:     54  92  91
1720434455,909:     55  92  91
1720434455,909:     52  92  91
1720434455,909:     43  92  91
1720434455,909:     28  92  91
1720434455,909:     15  92  91
1720434455,909:      9  92  91
1720434455,940:     10  92  91
1720434455,940:     11  92  91
1720434455,940:      6  92  91
1720434455,940:     -1  92  91
1720434455,940:      2  92  91
1720434455,940:     14  92  91
1720434455,940:     27  92  91
1720434455,940:     30  92  91
1720434455,940:     25  92  91
1720434455,940:     22  92  91
1720434455,940:     29  92  91
1720434455,940:     40  92  91
1720434455,940:     41  92  91
1720434455,971:     31  92  91
1720434455,971:     18  92  91
1720434455,971:     14  92  91
1720434455,971:     19  92  91
1720434455,971:     27  92  91
1720434455,971:     30  92  91
1720434455,971:     27  92  91
1720434455,971:     22  92  91
1720434455,971:     21  92  91
1720434455,971:     22  92  91
1720434455,971:     26  92  91
1720434455,971:     31  92  91
1720434455,971:     32  92  91
1720434455,971:     27  92  91
1720434455,971:     17  92  91
1720434455,971:      8  92  91
1720434455,971:      6  92  91
1720434455,971:      9  92  91
1720434455,971:      9  92  91
1720434455,971:      2  92  91
1720434455,971:     -8  92  91
1720434455,971:    -10  92  91
1720434456,003:     -2  92  91
1720434456,003:     10  92  91
1720434456,003:     16  92  91
1720434456,003:     13  92  91
1720434456,003:      8  92  91
1720434456,003:      7  92  91
1720434456,003:     11  92  91
1720434456,003:     15  92  91
1720434456,035:     15  92  91
1720434456,035:     10  92  91
1720434456,035:      5  92  91
1720434456,035:      1  92  91
1720434456,035:     -1  92  91
1720434456,035:     -2  92  91
1720434456,035:     -3  92  91
1720434456,035:     -3  92  91
1720434456,035:     -3  92  91
1720434456,035:     -2  92  91
1720434456,035:     -3  92  91
1720434456,035:     -4  92  91
1720434456,035:     -4  92  91
1720434456,035:     -4  92  91
1720434456,035:     -5  92  91
1720434456,035:     -7  92  91
1720434456,035:     -8  92  91
1720434456,035:     -4  92  91
1720434456,035:      3  92  91
1720434456,035:      6  92  91
1720434456,035:      1  92  91
1720434456,035:    -11  92  91
1720434456,067:    -19  92  91
1720434456,067:    -17  92  91
1720434456,067:    -13  92  91
1720434456,067:    -14  92  91
1720434456,067:    -24  92  91
1720434456,067:    -36  92  91
1720434456,067:    -44  92  91
1720434456,067:    -44  92  91
1720434456,099:    -38  92  91
1720434456,099:    -33  92  91
1720434456,099:    -33  92  91
1720434456,099:    -40  92  91
1720434456,099:    -53  92  91
1720434456,099:    -67  92  91
1720434456,099:    -76  92  91
1720434456,099:    -83  92  91
1720434456,099:    -89  92  91
1720434456,099:    -94  92  91
1720434456,099:    -88  92  91
1720434456,099:    -67  92  91
1720434456,099:    -36  92  91
1720434456,099:     -7  92  91
1720434456,099:     11  92  91
1720434456,130:     24  92  91
1720434456,130:     39  92  91
1720434456,130:     54  92  91
1720434456,130:     60  92  91
1720434456,130:     52  92  91
1720434456,130:     38  92  91
1720434456,130:     27  92  91
1720434456,130:     20  92  91
1720434456,130:     13  92  91
1720434456,130:      9  92  91
1720434456,130:     15  92  91
1720434456,130:     35  92  91
1720434456,130:     62  92  91
1720434456,130:     82  92  91
1720434456,130:     85  92  91
1720434456,130:     75  92  91
1720434456,130:     63  92  91
1720434456,130:     54  92  91
1720434456,130:     44  92  91
1720434456,130:     26  92  91
1720434456,130:      3  92  91
1720434456,130:    -20  92  91
1720434456,162:    -34  92  91
1720434456,162:    -40  92  91
1720434456,162:    -40  92  91
1720434456,162:    -38  92  91
1720434456,162:    -30  92  91
1720434456,162:    -15  92  91
1720434456,162:      0  92  91
1720434456,162:      3  92  91
1720434456,162:    -11  92  91
1720434456,162:    -32  92  91
1720434456,162:    -47  92  91
1720434456,162:    -48  92  91
1720434456,162:    -43  92  91
1720434456,162:    -40  92  91
1720434456,162:    -42  92  91
1720434456,192:    -40  92  91
1720434456,192:    -27  92  91
1720434456,192:      4  92  91
1720434456,192:     49  92  91
1720434456,192:     93  92  91
1720434456,192:    121  92  91
1720434456,192:    114  92  91
1720434456,192:     54  92  91
1720434456,192:    -72  92  91
1720434456,192:   -268  92  91
1720434456,192:   -537  92  91
1720434456,192:   -870  92  91
1720434456,192:  -1232  92  91
1720434456,192:  -1541  92  91
1720434456,192:  -1690  92  91
1720434456,223:  -1587  92  91
1720434456,223:  -1190  92  91
1720434456,223:   -490  92  91
1720434456,223:    532  92  91
1720434456,223:   1909  92  91
1720434456,223:   3624  92  91
1720434456,223:   5541  92  91
1720434456,223:   7411  92  91
1720434456,223:   8971  92  91
1720434456,223:  10051  92  91
1720434456,223:  10609  92  91
1720434456,223:  10686  92  91
1720434456,223:  10337  92  91
1720434456,223:   9592  92  91
1720434456,223:   8471  92  91
1720434456,255:   7037  90  91
1720434456,255:   5435  90  91
1720434456,255:   3888  90  91
1720434456,255:   2605  90  91
1720434456,255:   1667  90  91
1720434456,255:    993  90  91
1720434456,255:    429  90  91
1720434456,255:   -116  90  91
1720434456,255:   -609  90  91
1720434456,255:   -982  90  91
1720434456,255:  -1229  90  91
1720434456,255:  -1428  90  91
1720434456,255:  -1660  90  91
1720434456,255:  -1937  90  91
1720434456,255:  -2200  90  91
1720434456,287:  -2396  90  91
1720434456,287:  -2509  90  91
1720434456,287:  -2550  90  91
1720434456,287:  -2536  90  91
1720434456,287:  -2488  90  91
1720434456,287:  -2433  90  91
1720434456,287:  -2398  90  91
1720434456,287:  -2395  90  91
1720434456,287:  -2412  90  91
1720434456,287:  -2425  90  91
1720434456,287:  -2418  90  91
1720434456,287:  -2384  90  91
1720434456,287:  -2329  90  91
1720434456,287:  -2264  90  91
1720434456,287:  -2196  90  91
1720434456,319:  -2130  90  91
1720434456,319:  -2070  90  91
1720434456,319:  -2023  90  91
1720434456,319:  -1989  90  91
1720434456,319:  -1963  90  91
1720434456,319:  -1933  90  91
1720434456,319:  -1890  90  91
1720434456,319:  -1836  90  91
1720434456,319:  -1781  90  91
1720434456,319:  -1732  90  91
1720434456,319:  -1687  90  91
1720434456,319:  -1644  90  91
1720434456,319:  -1603  90  91
1720434456,319:  -1565  90  91
1720434456,319:  -1534  90  91
1720434456,319:  -1506  90  91
1720434456,319:  -1480  90  91
1720434456,319:  -1452  90  91
1720434456,319:  -1420  90  91
1720434456,319:  -1385  90  91
1720434456,319:  -1350  90  91
1720434456,319:  -1321  90  91
1720434456,319:  -1296  90  91
1720434456,350:  -1275  90  91
1720434456,350:  -1253  90  91
1720434456,350:  -1235  90  91
1720434456,350:  -1219  90  91
1720434456,350:  -1205  90  91
1720434456,350:  -1187  90  91
1720434456,350:  -1166  90  91
1720434456,350:  -1149  90  91
1720434456,350:  -1139  90  91
1720434456,350:  -1134  90  91
1720434456,350:  -1126  90  91
1720434456,350:  -1111  90  91
1720434456,350:  -1095  90  91
1720434456,350:  -1087  90  91
1720434456,350:  -1085  90  91
1720434456,381:  -1083  90  91
1720434456,381:  -1078  90  91
1720434456,381:  -1071  90  91
1720434456,381:  -1067  90  91
1720434456,381:  -1068  90  91
1720434456,381:  -1071  90  91
1720434456,381:  -1073  90  91
1720434456,381:  -1071  90  91
1720434456,381:  -1067  90  91
1720434456,381:  -1060  90  91
1720434456,381:  -1050  90  91
1720434456,381:  -1035  90  91
1720434456,381:  -1014  90  91
1720434456,381:   -990  90  91
1720434456,381:   -961  90  91
1720434456,381:   -929  90  91
1720434456,381:   -894  90  91
1720434456,381:   -860  90  91
1720434456,381:   -828  90  91
1720434456,381:   -795  90  91
1720434456,381:   -762  90  91
1720434456,381:   -726  90  91
1720434456,413:   -690  90  91
1720434456,413:   -654  90  91
1720434456,413:   -618  90  91
1720434456,413:   -579  90  91
1720434456,413:   -540  90  91
1720434456,413:   -503  90  91
1720434456,413:   -470  90  91
1720434456,413:   -442  90  91
1720434456,444:   -416  90  91
1720434456,444:   -390  90  91
1720434456,444:   -363  90  91
1720434456,444:   -334  90  91
1720434456,444:   -304  90  91
1720434456,444:   -270  90  91
1720434456,444:   -234  90  91
1720434456,444:   -197  90  91
1720434456,444:   -160  90  91
1720434456,444:   -123  90  91
1720434456,444:    -82  90  91
1720434456,444:    -38  90  91
1720434456,444:      8  90  91
1720434456,444:     49  90  91
1720434456,444:     83  90  91
1720434456,444:    112  90  91
1720434456,444:    142  90  91
1720434456,444:    174  90  91
1720434456,444:    204  90  91
1720434456,444:    225  90  91
1720434456,444:    239  90  91
1720434456,444:    251  90  91
1720434456,475:    269  90  91
1720434456,475:    293  90  91
1720434456,475:    313  90  91
1720434456,475:    325  90  91
1720434456,475:    331  90  91
1720434456,475:    337  90  91
1720434456,475:    346  90  91
1720434456,475:    353  90  91
1720434456,475:    356  90  91
1720434456,475:    354  90  91
1720434456,475:    353  90  91
1720434456,475:    354  90  91
1720434456,475:    356  90  91
1720434456,475:    354  90  91
1720434456,475:    347  90  91
1720434456,505:    340  90  91
1720434456,505:    336  90  91
1720434456,505:    333  90  91
1720434456,505:    326  90  91
1720434456,505:    315  90  91
1720434456,505:    306  90  91
1720434456,505:    303  90  91
1720434456,505:    301  90  91
1720434456,535:    290  90  91
1720434456,535:    273  90  91
1720434456,535:    259  90  91
1720434456,535:    257  90  91
1720434456,535:    262  90  91
1720434456,535:    261  90  91
1720434456,535:    247  90  91
1720434456,535:    228  90  91
1720434456,535:    215  90  91
1720434456,535:    213  90  91
1720434456,535:    214  90  91
1720434456,535:    210  90  91
1720434456,535:    202  90  91
1720434456,535:    196  90  91
1720434456,535:    192  90  91
1720434456,535:    188  90  91
1720434456,535:    182  90  91
1720434456,535:    179  90  91
1720434456,535:    180  90  91
1720434456,535:    184  90  91
1720434456,535:    183  90  91
1720434456,535:    174  90  91
1720434456,567:    161  90  91
1720434456,567:    154  90  91
1720434456,567:    153  90  91
1720434456,567:    154  90  91
1720434456,567:    150  90  91
1720434456,567:    140  90  91
1720434456,567:    129  90  91
1720434456,567:    120  90  91
1720434456,567:    115  90  91
1720434456,567:    112  90  91
1720434456,567:    110  90  91
1720434456,567:    108  90  91
1720434456,567:    104  90  91
1720434456,567:     97  90  91
1720434456,567:     91  90  91
1720434456,599:     87  90  91
1720434456,599:     88  90  91
1720434456,599:     89  90  91
1720434456,599:     88  90  91
1720434456,599:     85  90  91
1720434456,599:     80  90  91
1720434456,599:     74  90  91
1720434456,599:     68  90  91
1720434456,599:     66  90  91
1720434456,599:     69  90  91
1720434456,599:     73  90  91
1720434456,599:     70  90  91
1720434456,599:     60  90  91
1720434456,599:     55  90  91
1720434456,599:     60  90  91
1720434456,631:     74  90  91
1720434456,631:     81  90  91
1720434456,631:     77  90  91
1720434456,631:     69  90  91
1720434456,631:     68  90  91
1720434456,631:     76  90  91
1720434456,631:     81  90  91
1720434456,631:     77  90  91
1720434456,662:     72  90  91
1720434456,662:     72  90  91
1720434456,662:     79  90  91
1720434456,662:     82  90  91
1720434456,662:     78  90  91
1720434456,662:     74  90  91
1720434456,662:     79  90  91
1720434456,662:     90  90  91
1720434456,662:     93  90  91
1720434456,662:     82  90  91
1720434456,662:     66  90  91
1720434456,662:     59  90  91
1720434456,662:     64  90  91
1720434456,662:     68  90  91
1720434456,662:     62  90  91
1720434456,662:     49  90  91
1720434456,662:     42  90  91
1720434456,662:     45  90  91
1720434456,662:     51  90  91
1720434456,662:     52  90  91
1720434456,662:     46  90  91
1720434456,662:     40  90  91
1720434456,694:     39  90  91
1720434456,694:     39  90  91
1720434456,694:     38  90  91
1720434456,694:     35  90  91
1720434456,694:     32  90  91
1720434456,694:     31  90  91
1720434456,694:     31  90  91
1720434456,694:     31  90  91
1720434456,694:     32  90  91
1720434456,694:     33  90  91
1720434456,694:     30  90  91
1720434456,694:     24  90  91
1720434456,694:     18  90  91
1720434456,694:     17  90  91
1720434456,694:     18  90  91
1720434456,694:     15  90  91
1720434456,694:      4  90  91
1720434456,694:     -7  90  91
1720434456,694:    -12  90  91
1720434456,694:     -9  90  91
1720434456,694:     -7  90  91
1720434456,694:     -8  90  91
1720434456,694:    -13  90  91
1720434456,725:    -17  90  91
1720434456,725:    -20  90  91
1720434456,725:    -26  90  91
1720434456,725:    -35  90  91
1720434456,725:    -41  90  91
1720434456,725:    -45  90  91
1720434456,725:    -50  90  91
1720434456,756:    -61  90  91
1720434456,756:    -75  90  91
1720434456,756:    -80  90  91
1720434456,756:    -74  90  91
1720434456,756:    -66  90  91
1720434456,756:    -70  90  91
1720434456,756:    -86  90  91
1720434456,756:   -101  90  91
1720434456,756:   -105  90  91
1720434456,756:   -102  90  91
1720434456,756:   -109  90  91
1720434456,756:   -131  90  91
1720434456,756:   -147  90  91
1720434456,756:   -135  90  91
1720434456,756:    -96  90  91
1720434456,756:    -55  90  91
1720434456,756:    -36  90  91
1720434456,756:    -32  90  91
1720434456,756:    -21  90  91
1720434456,756:      9  90  91
1720434456,756:     41  90  91
1720434456,756:     49  90  91
1720434456,756:     29  90  91
1720434456,788:      1  90  91
1720434456,788:    -14  90  91
1720434456,788:    -17  90  91
1720434456,788:    -19  90  91
1720434456,788:    -21  90  91
1720434456,788:    -14  90  91
1720434456,788:      9  90  91
1720434456,788:     38  90  91
1720434456,788:     57  90  91
1720434456,788:     58  90  91
1720434456,788:     50  90  91
1720434456,788:     42  90  91
1720434456,788:     35  90  91
1720434456,788:     19  90  91
1720434456,788:     -7  90  91
1720434456,819:    -37  90  91
1720434456,819:    -59  90  91
1720434456,819:    -69  90  91
1720434456,819:    -69  90  91
1720434456,819:    -63  90  91
1720434456,819:    -55  90  91
1720434456,819:    -48  90  91
1720434456,819:    -45  90  91
1720434456,819:    -44  90  91
1720434456,819:    -41  90  91
1720434456,819:    -34  90  91
1720434456,819:    -31  90  91
1720434456,819:    -37  90  91
1720434456,819:    -53  90  91
1720434456,819:    -68  90  91
1720434456,850:    -75  90  91
1720434456,850:    -75  90  91
1720434456,850:    -75  90  91
1720434456,850:    -80  90  91
1720434456,850:    -81  90  91
1720434456,850:    -69  90  91
1720434456,850:    -36  90  91
1720434456,850:     15  90  91
1720434456,850:     66  90  91
1720434456,850:     99  90  91
1720434456,850:     99  90  91
1720434456,850:     53  90  91
1720434456,850:    -49  90  91
1720434456,850:   -218  90  91
1720434456,850:   -466  90  91
1720434456,881:   -792  90  91
1720434456,881:  -1160  90  91
1720434456,881:  -1488  90  91
1720434456,881:  -1665  90  91
1720434456,881:  -1598  90  91
1720434456,881:  -1243  90  91
1720434456,881:   -594  90  91
1720434456,881:    368  90  91
1720434456,881:   1680  90  91
1720434456,881:   3343  90  91
1720434456,881:   5239  90  91
1720434456,881:   7127  90  91
1720434456,881:   8733  90  91
1720434456,881:   9874  90  91
1720434456,881:  10497  90  91
1720434456,913:  10639  90  90
1720434456,913:  10353  90  90
1720434456,913:   9668  90  90
1720434456,913:   8604  90  90
1720434456,913:   7218  90  90
1720434456,913:   5643  90  90
1720434456,913:   4091  90  90
1720434456,913:   2773  90  90
1720434456,913:   1794  90  90
1720434456,913:   1098  90  90
1720434456,913:    532  90  90
1720434456,913:     -7  90  90
1720434456,913:   -506  90  90
1720434456,913:   -893  90  90
1720434456,913:  -1153  90  90
1720434456,944:  -1356  90  90
1720434456,944:  -1585  90  90
1720434456,944:  -1859  90  90
1720434456,944:  -2124  90  90
1720434456,944:  -2321  90  90
1720434456,944:  -2439  90  90
1720434456,944:  -2489  90  90
1720434456,944:  -2487  90  90
1720434456,944:  -2443  90  90
1720434456,944:  -2383  90  90
1720434456,944:  -2340  90  90
1720434456,944:  -2336  90  90
1720434456,944:  -2361  90  90
1720434456,944:  -2387  90  90
1720434456,944:  -2390  90  90
1720434456,944:  -2363  90  90
1720434456,944:  -2311  90  90
1720434456,944:  -2243  90  90
1720434456,944:  -2167  90  90
1720434456,976:  -2091  90  90
1720434456,976:  -2024  90  90
1720434456,976:  -1974  90  90
1720434456,976:  -1938  90  90
1720434456,976:  -1904  90  90
1720434456,976:  -1863  90  90
1720434456,976:  -1816  90  90
1720434456,976:  -1768  90  90
1720434456,976:  -1723  90  90
1720434456,976:  -1676  90  90
1720434456,976:  -1626  90  90
1720434456,976:  -1574  90  90
1720434456,976:  -1529  90  90
1720434456,976:  -1495  90  90
1720434456,976:  -1468  90  90
1720434457,006:  -1439  90  90
1720434457,006:  -1408  90  90
1720434457,006:  -1381  90  90
1720434457,006:  -1360  90  90
1720434457,006:  -1341  90  90
1720434457,006:  -1314  90  90
1720434457,006:  -1282  90  90
1720434457,006:  -1251  90  90
1720434457,006:  -1233  90  90
1720434457,006:  -1224  90  90
1720434457,006:  -1216  90  90
1720434457,006:  -1199  90  90
1720434457,006:  -1176  90  90
1720434457,006:  -1155  90  90
1720434457,006:  -1143  90  90
1720434457,037:  -1136  90  90
1720434457,037:  -1132  90  90
1720434457,037:  -1128  90  90
1720434457,037:  -1125  90  90
1720434457,037:  -1122  90  90
1720434457,037:  -1119  90  90
1720434457,037:  -1112  90  90
1720434457,037:  -1103  90  90
1720434457,037:  -1095  90  90
1720434457,037:  -1091  90  90
1720434457,037:  -1089  90  90
1720434457,037:  -1087  90  90
1720434457,037:  -1084  90  90
1720434457,037:  -1080  90  90
1720434457,037:  -1078  90  90
1720434457,069:  -1078  90  90
1720434457,069:  -1078  90  90
1720434457,069:  -1074  90  90
1720434457,069:  -1061  90  90
1720434457,069:  -1038  90  90
1720434457,069:  -1014  90  90
1720434457,069:   -994  90  90
1720434457,069:   -978  90  90
1720434457,069:   -953  90  90
1720434457,069:   -913  90  90
1720434457,069:   -865  90  90
1720434457,069:   -824  90  90
1720434457,069:   -795  90  90
1720434457,069:   -770  90  90
1720434457,069:   -734  90  90
1720434457,101:   -686  90  90
1720434457,101:   -638  90  90
1720434457,101:   -601  90  90
1720434457,101:   -572  90  90
1720434457,101:   -541  90  90
1720434457,101:   -502  90  90
1720434457,101:   -462  90  90
1720434457,101:   -431  90  90
1720434457,101:   -409  90  90
1720434457,101:   -386  90  90
1720434457,101:   -355  90  90
1720434457,101:   -318  90  90
1720434457,101:   -282  90  90
1720434457,101:   -251  90  90
1720434457,101:   -220  90  90
1720434457,101:   -186  90  90
1720434457,101:   -147  90  90
1720434457,101:   -105  90  90
1720434457,101:    -65  90  90
1720434457,101:    -28  90  90
1720434457,101:      5  90  90
1720434457,101:     37  90  90
1720434457,101:     72  90  90
1720434457,133:    110  90  90
1720434457,133:    150  90  90
1720434457,133:    186  90  90
1720434457,133:    215  90  90
1720434457,133:    240  90  90
1720434457,133:    265  90  90
1720434457,133:    291  90  90
1720434457,133:    314  90  90
1720434457,133:    330  90  90
1720434457,133:    342  90  90
1720434457,133:    353  90  90
1720434457,133:    365  90  90
1720434457,133:    374  90  90
1720434457,133:    377  90  90
1720434457,133:    375  90  90
1720434457,165:    371  90  90
1720434457,165:    368  90  90
1720434457,165:    363  90  90
1720434457,165:    356  90  90
1720434457,165:    345  90  90
1720434457,165:    335  90  90
1720434457,165:    329  90  90
1720434457,196:    326  90  90
1720434457,196:    326  90  90
1720434457,196:    326  90  90
1720434457,196:    324  90  90
1720434457,196:    322  90  90
1720434457,196:    319  90  90
1720434457,196:    319  90  90
1720434457,196:    321  90  90
1720434457,196:    319  90  90
1720434457,196:    309  90  90
1720434457,196:    292  90  90
1720434457,196:    274  90  90
1720434457,196:    261  90  90
1720434457,196:    255  90  90
1720434457,196:    254  90  90
1720434457,228:    250  90  90
1720434457,228:    241  90  90
1720434457,228:    228  90  90
1720434457,228:    218  90  90
1720434457,228:    218  90  90
1720434457,228:    224  90  90
1720434457,228:    228  90  90
1720434457,228:    223  90  90
1720434457,228:    211  90  90
1720434457,228:    200  90  90
1720434457,228:    194  90  90
1720434457,228:    187  90  90
1720434457,228:    175  90  90
1720434457,228:    162  90  90
1720434457,228:    155  90  90
1720434457,228:    153  90  90
1720434457,228:    148  90  90
1720434457,228:    134  90  90
1720434457,228:    118  90  90
1720434457,228:    111  90  90
1720434457,228:    111  90  90
1720434457,228:    110  90  90
1720434457,228:    100  90  90
1720434457,259:     86  90  90
1720434457,259:     77  90  90
1720434457,259:     75  90  90
1720434457,259:     76  90  90
1720434457,259:     78  90  90
1720434457,259:     84  90  90
1720434457,259:     92  90  90
1720434457,259:     97  90  90
1720434457,259:     94  90  90
1720434457,259:     87  90  90
1720434457,259:     83  90  90
1720434457,259:     87  90  90
1720434457,259:     92  90  90
1720434457,259:     91  90  90
1720434457,259:     81  90  90
1720434457,290:     67  90  90
1720434457,290:     58  90  90
1720434457,290:     56  90  90
1720434457,290:     60  90  90
1720434457,290:     67  90  90
1720434457,290:     69  90  90
1720434457,290:     66  90  90
1720434457,290:     61  90  90
1720434457,290:     60  90  90
1720434457,290:     66  90  90
1720434457,290:     73  90  90
1720434457,290:     74  90  90
1720434457,290:     66  90  90
1720434457,290:     59  90  90
1720434457,290:     57  90  90
1720434457,320:     62  90  90
1720434457,320:     67  90  90
1720434457,320:     69  90  90
1720434457,320:     69  90  90
1720434457,320:     70  90  90
1720434457,320:     74  90  90
1720434457,320:     77  90  90
1720434457,320:     77  90  90
1720434457,320:     75  90  90
1720434457,320:     71  90  90
1720434457,320:     66  90  90
1720434457,320:     59  90  90
1720434457,320:     55  90  90
1720434457,320:     56  90  90
1720434457,320:     57  90  90
1720434457,352:     54  90  90
1720434457,352:     46  90  90
1720434457,352:     42  90  90
1720434457,352:     45  90  90
1720434457,352:     53  90  90
1720434457,352:     56  90  90
1720434457,352:     48  90  90
1720434457,352:     37  90  90
1720434457,352:     33  90  90
1720434457,352:     38  90  90
1720434457,352:     44  90  90
1720434457,352:     43  90  90
1720434457,352:     35  90  90
1720434457,352:     28  90  90
1720434457,352:     29  90  90
1720434457,384:     35  90  90
1720434457,384:     38  90  90
1720434457,384:     35  90  90
1720434457,384:     31  90  90
1720434457,384:     31  90  90
1720434457,384:     35  90  90
1720434457,384:     37  90  90
1720434457,384:     34  90  90
1720434457,384:     28  90  90
1720434457,384:     28  90  90
1720434457,384:     34  90  90
1720434457,384:     39  90  90
1720434457,384:     37  90  90
1720434457,384:     28  90  90
1720434457,384:     21  90  90
1720434457,415:     21  90  90
1720434457,415:     23  90  90
1720434457,415:     21  90  90
1720434457,415:     13  90  90
1720434457,415:      5  90  90
1720434457,415:      0  90  90
1720434457,415:     -4  90  90
1720434457,415:    -12  90  90
1720434457,415:    -21  90  90
1720434457,415:    -27  90  90
1720434457,415:    -25  90  90
1720434457,415:    -23  90  90
1720434457,415:    -24  90  90
1720434457,415:    -29  90  90
1720434457,415:    -32  90  90
1720434457,415:    -31  90  90
1720434457,415:    -31  90  90
1720434457,415:    -38  90  90
1720434457,415:    -51  90  90
1720434457,415:    -66  90  90
1720434457,415:    -80  90  90
1720434457,415:    -89  90  90
1720434457,447:    -90  90  90
1720434457,447:    -81  90  90
1720434457,447:    -64  90  90
1720434457,447:    -41  90  90
1720434457,447:    -18  90  90
1720434457,447:      5  90  90
1720434457,447:     28  90  90
1720434457,447:     47  90  90
1720434457,447:     58  90  90
1720434457,447:     60  90  90
1720434457,447:     53  90  90
1720434457,447:     43  90  90
1720434457,447:     31  90  90
1720434457,447:     18  90  90
1720434457,447:      5  90  90
1720434457,477:      1  90  90
1720434457,477:     11  90  90
1720434457,477:     32  90  90
1720434457,477:     55  90  90
1720434457,477:     70  90  90
1720434457,477:     78  90  90
1720434457,477:     84  90  90
1720434457,477:     91  90  90
1720434457,477:     92  90  90
1720434457,477:     80  90  90
1720434457,477:     58  90  90
1720434457,477:     34  90  90
1720434457,477:     19  90  90
1720434457,477:     11  90  90
1720434457,477:      6  90  90
1720434457,507:      2  90  90
1720434457,507:      1  90  90
1720434457,507:      7  90  90
1720434457,507:     18  90  90
1720434457,507:     27  90  90
1720434457,507:     28  90  90
1720434457,507:     21  90  90
1720434457,507:      8  90  90
1720434457,507:     -6  90  90
1720434457,507:    -17  90  90
1720434457,507:    -26  90  90
1720434457,507:    -37  90  90
1720434457,507:    -51  90  90
1720434457,507:    -61  90  90
1720434457,507:    -57  90  90
1720434457,537:    -37  90  90
1720434457,537:     -3  90  90
1720434457,537:     36  90  90
1720434457,537:     74  90  90
1720434457,537:    104  90  90
1720434457,537:    115  90  90
1720434457,537:     80  90  90
1720434457,537:    -24  90  90
1720434457,537:   -205  90  90
1720434457,537:   -462  90  90
1720434457,537:   -787  90  90
1720434457,537:  -1149  90  90
1720434457,537:  -1479  90  90
1720434457,537:  -1669  90  90
1720434457,537:  -1616  90  90
1720434457,567:  -1270  90  90
1720434457,567:   -628  90  90
1720434457,567:    319  90  90
1720434457,567:   1607  90  90
1720434457,567:   3244  90  90
1720434457,567:   5125  90  90
1720434457,567:   7012  90  90
1720434457,567:   8629  90  90
1720434457,567:   9788  90  90
1720434457,567:  10434  90  90
1720434457,567:  10598  90  90
1720434457,567:  10330  90  90
1720434457,567:   9660  90  90
1720434457,567:   8616  90  90
1720434457,567:   7254  90  90
1720434457,599:   5701  89  90
1720434457,599:   4154  89  90
1720434457,599:   2822  89  90
1720434457,599:   1826  89  90
1720434457,599:   1122  89  90
1720434457,599:    564  89  90
1720434457,599:     32  89  90
1720434457,599:   -473  89  90
1720434457,599:   -876  89  90
1720434457,599:  -1149  89  90
1720434457,599:  -1349  89  90
1720434457,599:  -1569  89  90
1720434457,599:  -1837  89  90
1720434457,599:  -2105  89  90
1720434457,599:  -2310  89  90
1720434457,629:  -2433  89  90
1720434457,629:  -2486  89  90
1720434457,629:  -2484  89  90
1720434457,629:  -2439  89  90
1720434457,629:  -2374  89  90
1720434457,629:  -2324  89  90
1720434457,629:  -2312  89  90
1720434457,629:  -2331  89  90
1720434457,629:  -2350  89  90
1720434457,629:  -2346  89  90
1720434457,629:  -2312  89  90
1720434457,629:  -2256  89  90
1720434457,629:  -2188  89  90
1720434457,629:  -2116  89  90
1720434457,629:  -2047  89  90
1720434457,660:  -1989  89  90
1720434457,660:  -1943  89  90
1720434457,660:  -1904  89  90
1720434457,660:  -1867  89  90
1720434457,660:  -1829  89  90
1720434457,660:  -1788  89  90
1720434457,660:  -1744  89  90
1720434457,660:  -1693  89  90
1720434457,660:  -1638  89  90
1720434457,660:  -1582  89  90
1720434457,660:  -1533  89  90
1720434457,660:  -1493  89  90
1720434457,660:  -1457  89  90
1720434457,660:  -1425  89  90
1720434457,660:  -1395  89  90
1720434457,690:  -1368  89  90
1720434457,690:  -1341  89  90
1720434457,690:  -1311  89  90
1720434457,690:  -1278  89  90
1720434457,690:  -1246  89  90
1720434457,690:  -1218  89  90
1720434457,690:  -1194  89  90
1720434457,690:  -1170  89  90
1720434457,690:  -1150  89  90
1720434457,690:  -1134  89  90
1720434457,690:  -1122  89  90
1720434457,690:  -1109  89  90
1720434457,690:  -1092  89  90
1720434457,690:  -1073  89  90
1720434457,690:  -1060  89  90
1720434457,721:  -1056  89  90
1720434457,721:  -1058  89  90
1720434457,721:  -1054  89  90
1720434457,721:  -1043  89  90
1720434457,721:  -1029  89  90
1720434457,721:  -1022  89  90
1720434457,721:  -1023  89  90
1720434457,721:  -1023  89  90
1720434457,753:  -1016  89  90
1720434457,753:  -1006  89  90
1720434457,753:  -1001  89  90
1720434457,753:  -1002  89  90
1720434457,753:  -1004  89  90
1720434457,753:  -1000  89  90
1720434457,753:   -990  89  90
1720434457,753:   -986  89  90
1720434457,753:   -989  89  90
1720434457,753:   -991  89  90
1720434457,753:   -979  89  90
1720434457,753:   -951  89  90
1720434457,753:   -918  89  90
1720434457,753:   -893  89  90
1720434457,753:   -876  89  90
1720434457,753:   -855  89  90
1720434457,753:   -824  89  90
1720434457,753:   -785  89  90
1720434457,753:   -747  89  90
1720434457,753:   -713  89  90
1720434457,753:   -679  89  90
1720434457,753:   -647  89  90
1720434457,784:   -618  89  90
1720434457,784:   -592  89  90
1720434457,784:   -563  89  90
1720434457,784:   -524  89  90
1720434457,784:   -480  89  90
1720434457,784:   -442  89  90
1720434457,784:   -415  89  90
1720434457,784:   -393  89  90
1720434457,784:   -365  89  90
1720434457,784:   -326  89  90
1720434457,784:   -281  89  90
1720434457,784:   -241  89  90
1720434457,784:   -207  89  90
1720434457,784:   -177  89  90
1720434457,784:   -145  89  90
1720434457,784:   -112  89  90
1720434457,784:    -77  89  90
1720434457,784:    -41  89  90
1720434457,784:     -7  89  90
1720434457,784:     23  89  90
1720434457,784:     51  89  90
1720434457,784:     79  89  90
1720434457,784:    110  89  90
1720434457,815:    143  89  90
1720434457,815:    174  89  90
1720434457,815:    202  89  90
1720434457,815:    228  89  90
1720434457,815:    254  89  90
1720434457,815:    280  89  90
1720434457,815:    302  89  90
1720434457,846:    321  89  90
1720434457,846:    336  89  90
1720434457,846:    348  89  90
1720434457,846:    358  89  90
1720434457,846:    368  89  90
1720434457,846:    379  89  90
1720434457,846:    388  89  90
1720434457,846:    396  89  90
1720434457,846:    401  89  90
1720434457,846:    404  89  90
1720434457,846:    406  89  90
1720434457,846:    405  89  90
1720434457,846:    401  89  90
1720434457,846:    395  89  90
1720434457,846:    391  89  90
1720434457,846:    388  89  90
1720434457,846:    383  89  90
1720434457,846:    372  89  90
1720434457,846:    360  89  90
1720434457,846:    352  89  90
1720434457,846:    348  89  90
1720434457,846:    344  89  90
1720434457,846:    336  89  90
1720434457,876:    326  89  90
1720434457,876:    318  89  90
1720434457,876:    316  89  90
1720434457,876:    313  89  90
1720434457,876:    307  89  90
1720434457,876:    300  89  90
1720434457,876:    297  89  90
1720434457,908:    298  89  90
1720434457,908:    301  89  90
1720434457,908:    299  89  90
1720434457,908:    292  89  90
1720434457,908:    283  89  90
1720434457,908:    277  89  90
1720434457,908:    272  89  90
1720434457,908:    267  89  90
1720434457,908:    257  89  90
1720434457,908:    244  89  90
1720434457,908:    233  89  90
1720434457,908:    226  89  90
1720434457,908:    222  89  90
1720434457,908:    219  89  90
1720434457,908:    214  89  90
1720434457,908:    211  89  90
1720434457,908:    209  89  90
1720434457,908:    203  89  90
1720434457,908:    193  89  90
1720434457,908:    181  89  90
1720434457,908:    174  89  90
1720434457,908:    172  89  90
1720434457,908:    170  89  90
1720434457,938:    163  89  90
1720434457,938:    154  89  90
1720434457,938:    148  89  90
1720434457,938:    150  89  90
1720434457,938:    152  89  90
1720434457,938:    151  89  90
1720434457,938:    148  89  90
1720434457,938:    149  89  90
1720434457,938:    155  89  90
1720434457,938:    154  89  90
1720434457,938:    138  89  90
1720434457,938:    114  89  90
1720434457,938:    101  89  90
1720434457,938:    106  89  90
1720434457,938:    118  89  90
1720434457,969:    119  89  90
1720434457,969:    106  89  90
1720434457,969:     96  89  90
1720434457,969:    100  89  90
1720434457,969:    114  89  90
1720434457,969:    122  89  90
1720434457,969:    117  89  90
1720434457,969:    107  89  90
1720434457,969:    104  89  90
1720434457,969:    111  89  90
1720434457,969:    122  89  90
1720434457,969:    127  89  90
1720434457,969:    128  89  90
1720434457,969:    129  89  90
1720434457,969:    132  89  90
1720434457,969:    133  89  90
1720434457,969:    129  89  90
1720434457,969:    120  89  90
1720434457,969:    113  89  90
1720434457,969:    109  89  90
1720434458,001:    109  89  90
1720434458,001:    109  89  90
1720434458,001:    105  89  90
1720434458,001:    100  89  90
1720434458,001:    102  89  90
1720434458,001:    110  89  90
1720434458,001:    118  89  90
1720434458,001:    120  89  90
1720434458,001:    115  89  90
1720434458,001:    111  89  90
1720434458,001:    111  89  90
1720434458,001:    111  89  90
1720434458,001:    104  89  90
1720434458,001:     91  89  90
1720434458,001:     83  89  90
1720434458,033:     82  89  90
1720434458,033:     83  89  90
1720434458,033:     81  89  90
1720434458,033:     77  89  90
1720434458,033:     76  89  90
1720434458,033:     82  89  90
1720434458,033:     90  89  90
1720434458,033:     92  89  90
1720434458,033:     87  89  90
1720434458,033:     78  89  90
1720434458,033:     71  89  90
1720434458,033:     65  89  90
1720434458,033:     60  89  90
1720434458,033:     54  89  90
1720434458,033:     48  89  90
1720434458,065:     43  89  90
1720434458,065:     41  89  90
1720434458,065:     42  89  90
1720434458,065:     43  89  90
1720434458,065:     43  89  90
1720434458,065:     42  89  90
1720434458,065:     42  89  90
1720434458,065:     42  89  90
1720434458,065:     42  89  90
1720434458,065:     42  89  90
1720434458,065:     41  89  90
1720434458,065:     39  89  90
1720434458,065:     38  89  90
1720434458,065:     39  89  90
1720434458,065:     42  89  90
1720434458,097:     45  89  90
1720434458,097:     42  89  90
1720434458,097:     29  89  90
1720434458,097:     10  89  90
1720434458,097:     -3  89  90
1720434458,097:     -6  89  90
1720434458,097:     -5  89  90
1720434458,097:     -9  89  90
1720434458,097:    -19  89  90
1720434458,097:    -27  89  90
1720434458,097:    -24  89  90
1720434458,097:    -16  89  90
1720434458,097:    -15  89  90
1720434458,097:    -25  89  90
1720434458,097:    -38  89  90
1720434458,097:    -44  89  90
1720434458,097:    -45  89  90
1720434458,097:    -51  89  90
1720434458,097:    -64  89  90
1720434458,097:    -72  89  90
1720434458,097:    -59  89  90
1720434458,097:    -26  89  90
1720434458,129:      9  89  90
1720434458,129:     28  89  90
1720434458,129:     34  89  90
1720434458,129:     43  89  90
1720434458,129:     64  89  90
1720434458,129:     86  89  90
1720434458,129:     89  89  90
1720434458,129:     72  89  90
1720434458,129:     50  89  90
1720434458,129:     43  89  90
1720434458,129:     49  89  90
1720434458,129:     54  89  90
1720434458,129:     51  89  90
1720434458,129:     51  89  90
1720434458,129:     66  89  90
1720434458,161:     93  89  90
1720434458,161:    112  89  90
1720434458,161:    110  89  90
1720434458,161:     95  89  90
1720434458,161:     79  89  90
1720434458,161:     68  89  90
1720434458,161:     55  89  90
1720434458,161:     36  89  90
1720434458,161:     17  89  90
1720434458,161:      6  89  90
1720434458,161:      1  89  90
1720434458,161:     -3  89  90
1720434458,161:     -7  89  90
1720434458,161:     -5  89  90
1720434458,161:      6  89  90
1720434458,192:     15  89  90
1720434458,192:     13  89  90
1720434458,192:     -1  89  90
1720434458,192:    -16  89  90
1720434458,192:    -27  89  90
1720434458,192:    -38  89  90
1720434458,192:    -57  89  90
1720434458,192:    -79  89  90
1720434458,192:    -89  89  90
1720434458,192:    -80  89  90
1720434458,192:    -60  89  90
1720434458,192:    -43  89  90
1720434458,192:    -27  89  90
1720434458,192:      3  89  90
1720434458,192:     51  89  90
1720434458,224:    101  89  90
1720434458,224:    119  89  90
1720434458,224:     75  89  90
1720434458,224:    -42  89  90
1720434458,224:   -228  89  90
1720434458,224:   -484  89  90
1720434458,224:   -808  89  90
1720434458,224:  -1171  89  90
1720434458,224:  -1500  89  90
1720434458,224:  -1686  89  90
1720434458,224:  -1634  89  90
1720434458,224:  -1296  89  90
1720434458,224:   -662  89  90
1720434458,224:    291  89  90
1720434458,224:   1596  89  90
1720434458,254:   3243  89  90
1720434458,254:   5113  89  90
1720434458,254:   6978  89  90
1720434458,254:   8583  89  90
1720434458,254:   9749  89  90
1720434458,254:  10408  89  90
1720434458,254:  10575  89  90
1720434458,254:  10298  89  90
1720434458,254:   9620  89  90
1720434458,254:   8583  89  90
1720434458,254:   7239  89  90
1720434458,254:   5700  89  90
1720434458,254:   4158  89  90
1720434458,254:   2826  89  90
1720434458,254:   1831  89  90
1720434458,286:   1134  89  90
1720434458,286:    583  89  90
1720434458,286:     56  89  90
1720434458,286:   -444  89  90
1720434458,286:   -845  89  90
1720434458,286:  -1115  89  90
1720434458,286:  -1317  89  90
1720434458,286:  -1540  89  90
1720434458,286:  -1812  89  90
1720434458,286:  -2083  89  90
1720434458,286:  -2291  89  90
1720434458,286:  -2417  89  90
1720434458,286:  -2473  89  90
1720434458,286:  -2474  89  90
1720434458,286:  -2433  89  90
1720434458,318:  -2377  89  90
1720434458,318:  -2336  89  90
1720434458,318:  -2330  89  90
1720434458,318:  -2349  89  90
1720434458,318:  -2365  89  90
1720434458,318:  -2360  89  90
1720434458,318:  -2329  89  90
1720434458,318:  -2277  89  90
1720434458,318:  -2211  89  90
1720434458,318:  -2135  89  90
1720434458,318:  -2060  89  90
1720434458,318:  -1993  89  90
1720434458,318:  -1941  89  90
1720434458,318:  -1901  89  90
1720434458,318:  -1868  89  90
1720434458,350:  -1834  89  90
1720434458,350:  -1795  89  90
1720434458,350:  -1749  89  90
1720434458,350:  -1698  89  90
1720434458,350:  -1645  89  90
1720434458,350:  -1592  89  90
1720434458,350:  -1542  89  90
1720434458,350:  -1495  89  90
1720434458,350:  -1454  89  90
1720434458,350:  -1419  89  90
1720434458,350:  -1390  89  90
1720434458,350:  -1364  89  90
1720434458,350:  -1338  89  90
1720434458,350:  -1310  89  90
1720434458,350:  -1284  89  90
1720434458,350:  -1262  89  90
1720434458,350:  -1243  89  90
1720434458,350:  -1223  89  90
1720434458,350:  -1200  89  90
1720434458,350:  -1176  89  90
1720434458,350:  -1157  89  90
1720434458,350:  -1143  89  90
1720434458,350:  -1128  89  90
1720434458,382:  -1109  89  90
1720434458,382:  -1090  89  90
1720434458,382:  -1075  89  90
1720434458,382:  -1068  89  90
1720434458,382:  -1066  89  90
1720434458,382:  -1064  89  90
1720434458,382:  -1060  89  90
1720434458,413:  -1052  89  90
1720434458,413:  -1042  89  90
1720434458,413:  -1036  89  90
1720434458,413:  -1036  89  90
1720434458,413:  -1036  89  90
1720434458,413:  -1030  89  90
1720434458,413:  -1015  89  90
1720434458,413:  -1001  89  90
1720434458,413:   -995  89  90
1720434458,413:   -998  89  90
1720434458,413:   -999  89  90
1720434458,413:   -994  89  90
1720434458,413:   -985  89  90
1720434458,413:   -981  89  90
1720434458,413:   -978  89  90
1720434458,413:   -968  89  90
1720434458,413:   -947  89  90
1720434458,413:   -923  89  90
1720434458,413:   -905  89  90
1720434458,413:   -888  89  90
1720434458,413:   -860  89  90
1720434458,413:   -817  89  90
1720434458,413:   -770  89  90
1720434458,444:   -734  89  90
1720434458,444:   -709  89  90
1720434458,444:   -684  89  90
1720434458,444:   -646  89  90
1720434458,444:   -599  89  90
1720434458,444:   -556  89  90
1720434458,444:   -526  89  90
1720434458,444:   -503  89  90
1720434458,444:   -474  89  90
1720434458,444:   -435  89  90
1720434458,444:   -393  89  90
1720434458,444:   -357  89  90
1720434458,444:   -328  89  90
1720434458,444:   -296  89  90
1720434458,444:   -258  89  90
1720434458,474:   -218  89  90
1720434458,474:   -188  89  90
1720434458,474:   -169  89  90
1720434458,474:   -149  89  90
1720434458,474:   -117  89  90
1720434458,474:    -78  89  90
1720434458,474:    -43  89  90
1720434458,474:    -17  89  90
1720434458,474:      7  89  90
1720434458,474:     41  89  90
1720434458,474:     82  89  90
1720434458,474:    120  89  90
1720434458,474:    149  89  90
1720434458,474:    176  89  90
1720434458,474:    207  89  90
1720434458,505:    240  89  90
1720434458,505:    263  89  90
1720434458,505:    273  89  90
1720434458,505:    279  89  90
1720434458,505:    291  89  90
1720434458,505:    309  89  90
1720434458,505:    323  89  90
1720434458,505:    327  89  90
1720434458,505:    325  89  90
1720434458,505:    328  89  90
1720434458,505:    336  89  90
1720434458,505:    345  89  90
1720434458,505:    348  89  90
1720434458,505:    346  89  90
1720434458,505:    343  89  90
1720434458,535:    343  89  90
1720434458,535:    345  89  90
1720434458,535:    343  89  90
1720434458,535:    339  89  90
1720434458,535:    333  89  90
1720434458,535:    328  89  90
1720434458,535:    325  89  90
1720434458,535:    322  89  90
1720434458,535:    316  89  90
1720434458,535:    308  89  90
1720434458,535:    302  89  90
1720434458,535:    301  89  90
1720434458,535:    304  89  90
1720434458,535:    304  89  90
1720434458,535:    297  89  90
1720434458,565:    289  89  90
1720434458,565:    284  89  90
1720434458,565:    284  89  90
1720434458,565:    285  89  90
1720434458,565:    281  89  90
1720434458,565:    272  89  90
1720434458,565:    264  89  90
1720434458,565:    261  89  90
1720434458,565:    260  89  90
1720434458,565:    258  89  90
1720434458,565:    254  89  90
1720434458,565:    249  89  90
1720434458,565:    242  89  90
1720434458,565:    230  89  90
1720434458,565:    216  89  90
1720434458,596:    204  89  90
1720434458,596:    198  89  90
1720434458,596:    195  89  90
1720434458,596:    190  89  90
1720434458,596:    180  89  90
1720434458,596:    166  89  90
1720434458,596:    154  89  90
1720434458,596:    151  89  90
1720434458,596:    156  89  90
1720434458,596:    161  89  90
1720434458,596:    161  89  90
1720434458,596:    151  89  90
1720434458,596:    138  89  90
1720434458,596:    129  89  90
1720434458,596:    128  89  90
1720434458,627:    132  89  90
1720434458,627:    133  89  90
1720434458,627:    130  89  90
1720434458,627:    126  89  90
1720434458,627:    125  89  90
1720434458,627:    125  89  90
1720434458,627:    125  89  90
1720434458,627:    125  89  90
1720434458,627:    126  89  90
1720434458,627:    128  89  90
1720434458,627:    126  89  90
1720434458,627:    119  89  90
1720434458,627:    112  89  90
1720434458,627:    110  89  90
1720434458,627:    114  89  90
1720434458,658:    120  89  90
1720434458,658:    125  89  90
1720434458,658:    130  89  90
1720434458,658:    134  89  90
1720434458,658:    135  89  90
1720434458,658:    133  89  90
1720434458,658:    133  89  90
1720434458,658:    138  89  90
1720434458,658:    147  89  90
1720434458,658:    151  89  90
1720434458,658:    143  89  90
1720434458,658:    130  89  90
1720434458,658:    120  89  90
1720434458,658:    122  89  90
1720434458,658:    129  89  90
1720434458,689:    132  89  90
1720434458,689:    124  89  90
1720434458,689:    112  89  90
1720434458,689:    102  89  90
1720434458,689:     97  89  90
1720434458,689:     95  89  90
1720434458,689:     93  89  90
1720434458,689:     91  89  90
1720434458,689:     90  89  90
1720434458,689:     90  89  90
1720434458,689:     88  89  90
1720434458,689:     85  89  90
1720434458,689:     84  89  90
1720434458,689:     89  89  90
1720434458,689:     95  89  90
1720434458,721:     94  89  90
1720434458,721:     83  89  90
1720434458,721:     72  89  90
1720434458,721:     70  89  90
1720434458,721:     78  89  90
1720434458,721:     84  89  90
1720434458,721:     81  89  90
1720434458,721:     75  89  90
1720434458,721:     73  89  90
1720434458,721:     80  89  90
1720434458,721:     85  89  90
1720434458,721:     81  89  90
1720434458,721:     74  89  90
1720434458,721:     70  89  90
1720434458,721:     70  89  90
1720434458,721:     68  89  90
1720434458,721:     58  89  90
1720434458,721:     50  89  90
1720434458,721:     51  89  90
1720434458,721:     59  89  90
1720434458,721:     63  89  90
1720434458,721:     53  89  90
1720434458,752:     36  89  90
1720434458,752:     24  89  90
1720434458,752:     25  89  90
1720434458,752:     30  89  90
1720434458,752:     27  89  90
1720434458,752:     14  89  90
1720434458,752:     -3  89  90
1720434458,752:    -14  89  90
1720434458,783:    -16  89  90
1720434458,783:    -13  89  90
1720434458,783:     -7  89  90
1720434458,783:     -3  89  90
1720434458,783:     -4  89  90
1720434458,783:    -10  89  90
1720434458,783:    -13  89  90
1720434458,783:    -10  89  90
1720434458,783:     -3  89  90
1720434458,783:     -1  89  90
1720434458,783:     -9  89  90
1720434458,783:    -21  89  90
1720434458,783:    -29  89  90
1720434458,783:    -32  89  90
1720434458,783:    -37  89  90
1720434458,783:    -43  89  90
1720434458,783:    -39  89  90
1720434458,783:    -16  89  90
1720434458,783:     17  89  90
1720434458,783:     44  89  90
1720434458,783:     54  89  90
1720434458,783:     58  89  90
1720434458,814:     74  89  90
1720434458,814:    102  89  90
1720434458,814:    121  89  90
1720434458,814:    114  89  90
1720434458,814:     89  89  90
1720434458,814:     68  89  90
1720434458,814:     67  89  90
1720434458,814:     76  89  90
1720434458,814:     83  89  90
1720434458,814:     85  89  90
1720434458,814:     92  89  90
1720434458,814:    112  89  90
1720434458,814:    137  89  90
1720434458,814:    153  89  90
1720434458,814:    154  89  90
1720434458,846:    148  89  90
1720434458,846:    140  89  90
1720434458,846:    127  89  90
1720434458,846:    107  89  90
1720434458,846:     83  89  90
1720434458,846:     65  89  90
1720434458,846:     55  89  90
1720434458,846:     46  89  90
1720434458,846:     35  89  90
1720434458,846:     27  89  90
1720434458,846:     31  89  90
1720434458,846:     45  89  90
1720434458,846:     56  89  90
1720434458,846:     53  89  90
1720434458,846:     42  89  90
1720434458,877:     33  89  90
1720434458,877:     32  89  90
1720434458,877:     30  89  90
1720434458,877:     17  89  90
1720434458,877:     -3  89  90
1720434458,877:    -17  89  90
1720434458,877:    -15  89  90
1720434458,877:      0  89  90
1720434458,877:     18  89  90
1720434458,877:     38  89  90
1720434458,877:     69  89  90
1720434458,877:    112  89  90
1720434458,877:    154  89  90
1720434458,877:    171  89  90
1720434458,877:    137  89  90
1720434458,909:     39  89  90
1720434458,909:   -125  89  90
1720434458,909:   -360  89  90
1720434458,909:   -668  89  90
1720434458,909:  -1031  89  90
1720434458,909:  -1378  89  90
1720434458,909:  -1598  89  90
1720434458,909:  -1587  89  90
1720434458,941:  -1291  89  90
1720434458,941:   -706  89  90
1720434458,941:    178  89  90
1720434458,941:   1403  89  90
1720434458,941:   2988  89  90
1720434458,941:   4843  89  90
1720434458,941:   6743  89  90
1720434458,941:   8416  89  90
1720434458,941:   9659  89  90
1720434458,941:  10397  89  90
1720434458,941:  10649  89  90
1720434458,941:  10460  89  90
1720434458,941:   9861  89  90
1720434458,941:   8882  89  90
1720434458,941:   7571  89  90
1720434458,941:   6040  89  90
1720434458,941:   4474  89  90
1720434458,941:   3091  89  90
1720434458,941:   2031  89  90
1720434458,941:   1280  89  90
1720434458,941:    697  89  90
1720434458,941:    149  89  90
1720434458,972:   -375  90  90
1720434458,972:   -802  90  90
1720434458,972:  -1089  90  90
1720434458,972:  -1290  90  90
1720434458,972:  -1502  90  90
1720434458,972:  -1767  90  90
1720434458,972:  -2042  90  90
1720434458,972:  -2260  90  90
1720434458,972:  -2395  90  90
1720434458,972:  -2456  90  90
1720434458,972:  -2462  90  90
1720434458,972:  -2427  90  90
1720434459,004:  -2372  90  90
1720434459,004:  -2328  90  90
1720434459,004:  -2321  90  90
1720434459,004:  -2344  90  90
1720434459,004:  -2370  90  90
1720434459,004:  -2375  90  90
1720434459,004:  -2349  90  90
1720434459,004:  -2299  90  90
1720434459,004:  -2236  90  90
1720434459,004:  -2169  90  90
1720434459,004:  -2104  90  90
1720434459,004:  -2045  90  90
1720434459,004:  -1994  90  90
1720434459,004:  -1949  90  90
1720434459,004:  -1910  90  90
1720434459,004:  -1874  90  90
1720434459,004:  -1838  90  90
1720434459,004:  -1797  90  90
1720434459,004:  -1746  90  90
1720434459,004:  -1687  90  90
1720434459,004:  -1628  90  90
1720434459,004:  -1576  90  90
1720434459,004:  -1533  90  90
1720434459,036:  -1498  90  90
1720434459,036:  -1466  90  90
1720434459,036:  -1435  90  90
1720434459,036:  -1408  90  90
1720434459,036:  -1382  90  90
1720434459,036:  -1354  90  90
1720434459,036:  -1321  90  90
1720434459,036:  -1285  90  90
1720434459,036:  -1254  90  90
1720434459,036:  -1230  90  90
1720434459,036:  -1214  90  90
1720434459,036:  -1198  90  90
1720434459,036:  -1180  90  90
1720434459,036:  -1161  90  90
1720434459,036:  -1145  90  90
1720434459,068:  -1132  90  90
1720434459,068:  -1119  90  90
1720434459,068:  -1104  90  90
1720434459,068:  -1086  90  90
1720434459,068:  -1071  90  90
1720434459,068:  -1063  90  90
1720434459,068:  -1061  90  90
1720434459,068:  -1060  90  90
1720434459,068:  -1055  90  90
1720434459,068:  -1047  90  90
1720434459,068:  -1040  90  90
1720434459,068:  -1039  90  90
1720434459,068:  -1044  90  90
1720434459,068:  -1050  90  90
1720434459,068:  -1049  90  90
1720434459,100:  -1039  90  90
1720434459,100:  -1026  90  90
1720434459,100:  -1014  90  90
1720434459,100:  -1005  90  90
1720434459,100:   -994  90  90
1720434459,100:   -980  90  90
1720434459,100:   -964  90  90
1720434459,100:   -948  90  90
1720434459,100:   -930  90  90
1720434459,100:   -907  90  90
1720434459,100:   -880  90  90
1720434459,100:   -854  90  90
1720434459,100:   -828  90  90
1720434459,100:   -802  90  90
1720434459,100:   -769  90  90
1720434459,100:   -730  90  90
1720434459,100:   -690  90  90
1720434459,100:   -656  90  90
1720434459,100:   -627  90  90
1720434459,100:   -596  90  90
1720434459,100:   -561  90  90
1720434459,100:   -526  90  90
1720434459,130:   -492  90  90
1720434459,130:   -461  90  90
1720434459,130:   -431  90  90
1720434459,130:   -399  90  90
1720434459,130:   -363  90  90
1720434459,130:   -326  90  90
1720434459,130:   -289  90  90
1720434459,130:   -255  90  90
1720434459,130:   -223  90  90
1720434459,130:   -190  90  90
1720434459,130:   -153  90  90
1720434459,130:   -113  90  90
1720434459,130:    -74  90  90
1720434459,130:    -41  90  90
1720434459,130:    -13  90  90
1720434459,162:     17  90  90
1720434459,162:     54  90  90
1720434459,162:     97  90  90
1720434459,162:    136  90  90
1720434459,162:    168  90  90
1720434459,162:    194  90  90
1720434459,162:    221  90  90
1720434459,162:    250  90  90
1720434459,162:    277  90  90
1720434459,162:    298  90  90
1720434459,162:    313  90  90
1720434459,162:    328  90  90
1720434459,162:    344  90  90
1720434459,162:    358  90  90
1720434459,162:    368  90  90
1720434459,194:    375  90  90
1720434459,194:    383  90  90
1720434459,194:    391  90  90
1720434459,194:    394  90  90
1720434459,194:    388  90  90
1720434459,194:    380  90  90
1720434459,194:    377  90  90
1720434459,194:    381  90  90
1720434459,226:    385  90  90
1720434459,226:    381  90  90
1720434459,226:    372  90  90
1720434459,226:    364  90  90
1720434459,226:    363  90  90
1720434459,226:    364  90  90
1720434459,226:    361  90  90
1720434459,226:    352  90  90
1720434459,226:    342  90  90
1720434459,226:    334  90  90
1720434459,226:    328  90  90
1720434459,226:    321  90  90
1720434459,226:    313  90  90
1720434459,226:    306  90  90
1720434459,226:    303  90  90
1720434459,226:    302  90  90
1720434459,226:    300  90  90
1720434459,226:    295  90  90
1720434459,226:    285  90  90
1720434459,226:    274  90  90
1720434459,226:    264  90  90
1720434459,226:    262  90  90
1720434459,257:    264  90  90
1720434459,257:    263  90  90
1720434459,257:    255  90  90
1720434459,257:    243  90  90
1720434459,257:    235  90  90
1720434459,257:    234  90  90
1720434459,257:    236  90  90
1720434459,257:    234  90  90
1720434459,257:    224  90  90
1720434459,257:    210  90  90
1720434459,257:    199  90  90
1720434459,257:    193  90  90
1720434459,257:    188  90  90
1720434459,257:    181  90  90
1720434459,257:    171  90  90
1720434459,287:    164  90  90
1720434459,287:    161  90  90
1720434459,287:    161  90  90
1720434459,287:    159  90  90
1720434459,287:    153  90  90
1720434459,287:    143  90  90
1720434459,287:    133  90  90
1720434459,287:    126  90  90
1720434459,287:    122  90  90
1720434459,287:    115  90  90
1720434459,287:    106  90  90
1720434459,287:     96  90  90
1720434459,287:     90  90  90
1720434459,287:     90  90  90
1720434459,287:     93  90  90
1720434459,319:     96  90  90
1720434459,319:     97  90  90
1720434459,319:     96  90  90
1720434459,319:     95  90  90
1720434459,319:     93  90  90
1720434459,319:     89  90  90
1720434459,319:     86  90  90
1720434459,319:     84  90  90
1720434459,319:     84  90  90
1720434459,319:     84  90  90
1720434459,319:     84  90  90
1720434459,319:     83  90  90
1720434459,319:     79  90  90
1720434459,319:     77  90  90
1720434459,319:     77  90  90
1720434459,319:     78  90  90
1720434459,319:     78  90  90
1720434459,319:     76  90  90
1720434459,319:     72  90  90
1720434459,319:     69  90  90
1720434459,319:     67  90  90
1720434459,319:     64  90  90
1720434459,319:     61  90  90
1720434459,350:     61  90  90
1720434459,350:     65  90  90
1720434459,350:     71  90  90
1720434459,350:     73  90  90
1720434459,350:     70  90  90
1720434459,350:     65  90  90
1720434459,350:     63  90  90
1720434459,380:     67  90  90
1720434459,380:     69  90  90
1720434459,380:     66  90  90
1720434459,380:     59  90  90
1720434459,380:     53  90  90
1720434459,380:     51  90  90
1720434459,380:     51  90  90
1720434459,380:     47  90  90
1720434459,380:     41  90  90
1720434459,380:     38  90  90
1720434459,380:     40  90  90
1720434459,380:     42  90  90
1720434459,380:     40  90  90
1720434459,380:     33  90  90
1720434459,380:     28  90  90
1720434459,412:     27  90  90
1720434459,412:     31  90  90
1720434459,412:     32  90  90
1720434459,412:     27  90  90
1720434459,412:     20  90  90
1720434459,412:     17  90  90
1720434459,412:     20  90  90
1720434459,412:     25  90  90
1720434459,412:     28  90  90
1720434459,412:     27  90  90
1720434459,412:     24  90  90
1720434459,412:     22  90  90
1720434459,412:     22  90  90
1720434459,412:     22  90  90
1720434459,412:     22  90  90
1720434459,442:     21  90  90
1720434459,442:     20  90  90
1720434459,442:     21  90  90
1720434459,442:     21  90  90
1720434459,442:     16  90  90
1720434459,442:      7  90  90
1720434459,442:     -2  90  90
1720434459,442:     -9  90  90
1720434459,442:    -15  90  90
1720434459,442:    -24  90  90
1720434459,442:    -36  90  90
1720434459,442:    -49  90  90
1720434459,442:    -58  90  90
1720434459,442:    -65  90  90
1720434459,442:    -72  90  90
1720434459,473:    -74  90  90
1720434459,473:    -69  90  90
1720434459,473:    -61  90  90
1720434459,473:    -61  90  90
1720434459,473:    -75  90  90
1720434459,473:    -93  90  90
1720434459,473:   -100  90  90
1720434459,473:    -94  90  90
1720434459,473:    -90  90  90
1720434459,473:    -99  90  90
1720434459,473:   -112  90  90
1720434459,473:   -107  90  90
1720434459,473:    -76  90  90
1720434459,473:    -34  90  90
1720434459,473:     -4  90  90
1720434459,473:      9  90  90
1720434459,473:     18  90  90
1720434459,473:     36  90  90
1720434459,473:     59  90  90
1720434459,473:     73  90  90
1720434459,473:     70  90  90
1720434459,473:     59  90  90
1720434459,473:     51  90  90
1720434459,504:     51  90  90
1720434459,504:     55  90  90
1720434459,504:     60  90  90
1720434459,504:     69  90  90
1720434459,504:     83  90  90
1720434459,504:     97  90  90
1720434459,504:    106  90  90
1720434459,504:    107  90  90
1720434459,504:    102  90  90
1720434459,504:     93  90  90
1720434459,504:     80  90  90
1720434459,504:     63  90  90
1720434459,504:     43  90  90
1720434459,504:     27  90  90
1720434459,504:     18  90  90
1720434459,536:     16  90  90
1720434459,536:     16  90  90
1720434459,536:     16  90  90
1720434459,536:     17  90  90
1720434459,536:     19  90  90
1720434459,536:     22  90  90
1720434459,536:     22  90  90
1720434459,536:     14  90  90
1720434459,536:     -2  90  90
1720434459,536:    -20  90  90
1720434459,536:    -35  90  90
1720434459,536:    -47  90  90
1720434459,536:    -60  90  90
1720434459,536:    -73  90  90
1720434459,536:    -82  90  90
1720434459,568:    -80  90  90
1720434459,568:    -67  90  90
1720434459,568:    -46  90  90
1720434459,568:    -17  90  90
1720434459,568:     19  90  90
1720434459,568:     60  90  90
1720434459,568:     92  90  90
1720434459,568:     92  90  90
1720434459,568:     36  90  90
1720434459,568:    -90  90  90
1720434459,568:   -285  90  90
1720434459,568:   -552  90  90
1720434459,568:   -883  90  90
1720434459,568:  -1241  90  90
1720434459,568:  -1544  90  90
1720434459,568:  -1683  90  90
1720434459,568:  -1565  90  90
1720434459,568:  -1156  90  90
1720434459,568:   -456  90  90
1720434459,568:    554  90  90
1720434459,568:   1914  90  90
1720434459,568:   3614  90  90
1720434459,598:   5516  90  90
1720434459,598:   7364  90  90
1720434459,598:   8894  90  90
1720434459,598:   9946  90  90
1720434459,598:  10491  90  90
1720434459,598:  10571  90  90
1720434459,598:  10230  90  90
1720434459,598:   9490  90  90
1720434459,598:   8377  90  90
1720434459,598:   6962  90  90
1720434459,598:   5389  90  90
1720434459,598:   3869  90  90
1720434459,598:   2601  90  90
1720434459,598:   1670  90  90
1720434459,598:   1004  90  90
1720434459,630:    452  90  90
1720434459,630:    -85  90  90
1720434459,630:   -581  90  90
1720434459,630:   -959  90  90
1720434459,630:  -1208  90  90
1720434459,630:  -1402  90  90
1720434459,630:  -1629  90  90
1720434459,630:  -1905  90  90
1720434459,661:  -2171  90  90
1720434459,661:  -2367  90  90
1720434459,661:  -2478  90  90
1720434459,661:  -2516  90  90
1720434459,661:  -2504  90  90
1720434459,661:  -2459  90  90
1720434459,661:  -2407  90  90
1720434459,661:  -2374  90  90
1720434459,661:  -2373  90  90
1720434459,661:  -2391  90  90
1720434459,661:  -2406  90  90
1720434459,661:  -2401  90  90
1720434459,661:  -2372  90  90
1720434459,661:  -2319  90  90
1720434459,661:  -2249  90  90
1720434459,661:  -2173  90  90
1720434459,661:  -2104  90  90
1720434459,661:  -2048  90  90
1720434459,661:  -2004  90  90
1720434459,661:  -1968  90  90
1720434459,661:  -1934  90  90
1720434459,661:  -1899  90  90
1720434459,693:  -1860  90  90
1720434459,693:  -1817  90  90
1720434459,693:  -1771  90  90
1720434459,693:  -1725  90  90
1720434459,693:  -1679  90  90
1720434459,693:  -1634  90  90
1720434459,693:  -1594  90  90
1720434459,693:  -1561  90  90
1720434459,693:  -1534  90  90
1720434459,693:  -1508  90  90
1720434459,693:  -1480  90  90
1720434459,693:  -1450  90  90
1720434459,693:  -1419  90  90
1720434459,693:  -1387  90  90
1720434459,693:  -1351  90  90
1720434459,724:  -1315  90  90
1720434459,724:  -1283  90  90
1720434459,724:  -1260  90  90
1720434459,724:  -1246  90  90
1720434459,724:  -1233  90  90
1720434459,724:  -1218  90  90
1720434459,724:  -1202  90  90
1720434459,724:  -1190  90  90
1720434459,724:  -1179  90  90
1720434459,724:  -1166  90  90
1720434459,724:  -1151  90  90
1720434459,724:  -1137  90  90
1720434459,724:  -1127  90  90
1720434459,724:  -1120  90  90
1720434459,724:  -1114  90  90
1720434459,756:  -1107  90  90
1720434459,756:  -1099  90  90
1720434459,756:  -1093  90  90
1720434459,756:  -1090  90  90
1720434459,756:  -1085  90  90
1720434459,756:  -1078  90  90
1720434459,756:  -1069  90  90
1720434459,756:  -1061  90  90
1720434459,756:  -1053  90  90
1720434459,756:  -1043  90  90
1720434459,756:  -1031  90  90
1720434459,756:  -1018  90  90
1720434459,756:  -1006  90  90
1720434459,756:   -998  90  90
1720434459,756:   -987  90  90
1720434459,786:   -967  90  90
1720434459,786:   -936  90  90
1720434459,786:   -898  90  90
1720434459,786:   -861  90  90
1720434459,786:   -830  90  90
1720434459,786:   -799  90  90
1720434459,786:   -762  90  90
1720434459,786:   -720  90  90
1720434459,817:   -679  90  90
1720434459,817:   -644  90  90
1720434459,817:   -612  90  90
1720434459,817:   -579  90  90
1720434459,817:   -545  90  90
1720434459,817:   -512  90  90
1720434459,817:   -483  90  90
1720434459,817:   -456  90  90
1720434459,817:   -423  90  90
1720434459,817:   -384  90  90
1720434459,817:   -343  90  90
1720434459,817:   -308  90  90
1720434459,817:   -280  90  90
1720434459,817:   -254  90  90
1720434459,817:   -221  90  90
1720434459,817:   -182  90  90
1720434459,817:   -143  90  90
1720434459,817:   -109  90  90
1720434459,817:    -80  90  90
1720434459,817:    -49  90  90
1720434459,817:    -12  90  90
1720434459,817:     31  90  90
1720434459,848:     73  90  90
1720434459,848:    109  90  90
1720434459,848:    141  90  90
1720434459,848:    173  90  90
1720434459,848:    206  90  90
1720434459,848:    238  90  90
1720434459,848:    266  90  90
1720434459,848:    288  90  90
1720434459,848:    303  90  90
1720434459,848:    315  90  90
1720434459,848:    328  90  90
1720434459,848:    342  90  90
1720434459,848:    356  90  90
1720434459,848:    366  90  90
1720434459,848:    374  90  90
1720434459,878:    382  90  90
1720434459,878:    391  90  90
1720434459,878:    399  90  90
1720434459,878:    400  90  90
1720434459,878:    396  90  90
1720434459,878:    392  90  90
1720434459,878:    392  90  90
1720434459,878:    394  90  90
1720434459,878:    392  90  90
1720434459,878:    383  90  90
1720434459,878:    372  90  90
1720434459,878:    366  90  90
1720434459,878:    365  90  90
1720434459,878:    364  90  90
1720434459,878:    361  90  90
1720434459,878:    357  90  90
1720434459,878:    353  90  90
1720434459,878:    348  90  90
1720434459,878:    338  90  90
1720434459,878:    330  90  90
1720434459,878:    326  90  90
1720434459,878:    327  90  90
1720434459,878:    324  90  90
1720434459,909:    314  90  90
1720434459,909:    300  90  90
1720434459,909:    293  90  90
1720434459,909:    292  90  90
1720434459,909:    292  90  90
1720434459,909:    285  90  90
1720434459,909:    275  90  90
1720434459,941:    270  90  90
1720434459,941:    274  90  90
1720434459,941:    275  90  90
1720434459,941:    266  90  90
1720434459,941:    247  90  90
1720434459,941:    231  90  90
1720434459,941:    228  90  90
1720434459,941:    232  90  90
1720434459,941:    231  90  90
1720434459,941:    220  90  90
1720434459,941:    207  90  90
1720434459,941:    204  90  90
1720434459,941:    208  90  90
1720434459,941:    208  90  90
1720434459,941:    198  90  90
1720434459,941:    183  90  90
1720434459,941:    176  90  90
1720434459,941:    178  90  90
1720434459,941:    178  90  90
1720434459,941:    167  90  90
1720434459,941:    151  90  90
1720434459,941:    143  90  90
1720434459,941:    146  90  90
1720434459,971:    153  90  90
1720434459,971:    154  90  90
1720434459,971:    147  90  90
1720434459,971:    140  90  90
1720434459,971:    138  90  90
1720434459,971:    139  90  90
1720434459,971:    138  90  90
1720434459,971:    141  90  90
1720434459,971:    147  90  90
1720434459,971:    151  90  90
1720434459,971:    146  90  90
1720434459,971:    134  90  90
1720434460,002:    127  90  90
1720434460,002:    135  90  90
1720434460,002:    148  90  90
1720434460,002:    152  90  90
1720434460,002:    142  90  90
1720434460,002:    130  90  90
1720434460,002:    128  90  90
1720434460,002:    136  90  90
1720434460,002:    145  90  90
1720434460,002:    148  90  90
1720434460,002:    148  90  90
1720434460,002:    148  90  90
1720434460,002:    148  90  90
1720434460,002:    147  90  90
1720434460,002:    147  90  90
1720434460,034:    151  90  90
1720434460,034:    158  90  90
1720434460,034:    157  90  90
1720434460,034:    146  90  90
1720434460,034:    135  90  90
1720434460,034:    135  90  90
1720434460,034:    149  90  90
1720434460,034:    162  90  90
1720434460,034:    160  90  90
1720434460,034:    145  90  90
1720434460,034:    133  90  90
1720434460,034:    133  90  90
1720434460,034:    142  90  90
1720434460,034:    149  90  90
1720434460,034:    147  90  90
1720434460,034:    140  90  90
1720434460,034:    135  90  90
1720434460,034:    134  90  90
1720434460,034:    134  90  90
1720434460,034:    133  90  90
1720434460,034:    131  90  90
1720434460,034:    128  90  90
1720434460,034:    121  90  90
1720434460,066:    113  90  90
1720434460,066:    107  90  90
1720434460,066:    108  90  90
1720434460,066:    112  90  90
1720434460,066:    117  90  90
1720434460,066:    118  90  90
1720434460,066:    117  90  90
1720434460,098:    114  90  90
1720434460,098:    112  90  90
1720434460,098:    113  90  90
1720434460,098:    114  90  90
1720434460,098:    114  90  90
1720434460,098:    109  90  90
1720434460,098:    100  90  90
1720434460,098:     92  90  90
1720434460,098:     89  90  90
1720434460,098:     89  90  90
1720434460,098:     87  90  90
1720434460,098:     82  90  90
1720434460,098:     75  90  90
1720434460,098:     68  90  90
1720434460,098:     62  90  90
1720434460,130:     54  90  90
1720434460,130:     45  90  90
1720434460,130:     40  90  90
1720434460,130:     39  90  90
1720434460,130:     36  90  90
1720434460,130:     31  90  90
1720434460,130:     28  90  90
1720434460,130:     30  90  90
1720434460,130:     35  90  90
1720434460,130:     32  90  90
1720434460,130:     18  90  90
1720434460,130:      1  90  90
1720434460,130:     -8  90  90
1720434460,130:    -12  90  90
1720434460,130:    -19  90  90
1720434460,130:    -29  90  90
1720434460,130:    -29  90  90
1720434460,130:     -6  90  90
1720434460,130:     33  90  90
1720434460,130:     65  90  90
1720434460,130:     75  90  90
1720434460,130:     72  90  90
1720434460,130:     76  90  90
1720434460,161:     95  90  90
1720434460,161:    114  90  90
1720434460,161:    113  90  90
1720434460,161:     93  90  90
1720434460,161:     73  90  90
1720434460,161:     66  90  90
1720434460,161:     72  90  90
1720434460,161:     81  90  90
1720434460,161:     90  90  90
1720434460,161:    104  90  90
1720434460,161:    120  90  90
1720434460,161:    131  90  90
1720434460,161:    128  90  90
1720434460,161:    116  90  90
1720434460,161:    107  90  90
1720434460,192:    105  90  90
1720434460,192:     99  90  90
1720434460,192:     80  90  90
1720434460,192:     50  90  90
1720434460,192:     27  90  90
1720434460,192:     22  90  90
1720434460,192:     32  90  90
1720434460,192:     40  90  90
1720434460,192:     40  90  90
1720434460,192:     35  90  90
1720434460,192:     34  90  90
1720434460,192:     36  90  90
1720434460,192:     35  90  90
1720434460,192:     25  90  90
1720434460,192:     10  90  90
1720434460,224:     -5  90  90
1720434460,224:    -19  90  90
1720434460,224:    -34  90  90
1720434460,224:    -51  90  90
1720434460,224:    -65  90  90
1720434460,224:    -68  90  90
1720434460,224:    -59  90  90
1720434460,224:    -43  90  90
1720434460,224:    -20  90  90
1720434460,224:     13  90  90
1720434460,224:     57  90  90
1720434460,224:    100  90  90
1720434460,224:    121  90  90
1720434460,224:     96  90  90
1720434460,224:     10  90  90
1720434460,224:   -143  90  90
1720434460,224:   -367  90  90
1720434460,224:   -669  90  90
1720434460,224:  -1029  90  90
1720434460,224:  -1385  90  90
1720434460,224:  -1635  90  90
1720434460,224:  -1672  90  90
1720434460,286:  -1431  90  90
1720434460,286:   -895  90  90
1720434460,286:    -55  90  90
1720434460,286:   1120  90  90
1720434460,286:   2646  90  90
1720434460,286:   4455  90  90
1720434460,286:   6354  90  90
1720434460,286:   8083  90  90
1720434460,286:   9420  90  90
1720434460,286:  10254  90  90
1720434460,286:  10580  90  90
1720434460,286:  10449  90  90
1720434460,286:   9913  90  90
1720434460,286:   9007  90  90
1720434460,286:   7766  90  90
1720434460,286:   6272  90  90
1720434460,286:   4698  90  90
1720434460,286:   3268  90  90
1720434460,286:   2159  90  90
1720434460,286:   1382  90  90
1720434460,286:    803  90  90
1720434460,286:    270  90  90
1720434460,286:   -254  90  90
1720434460,317:   -696  90  90
1720434460,317:   -995  90  90
1720434460,317:  -1193  90  90
1720434460,317:  -1392  90  90
1720434460,317:  -1650  90  90
1720434460,317:  -1934  90  90
1720434460,317:  -2167  90  90
1720434460,317:  -2312  90  90
1720434460,317:  -2383  90  90
1720434460,317:  -2401  90  90
1720434460,317:  -2380  90  90
1720434460,317:  -2330  90  90
1720434460,317:  -2276  90  90
1720434460,317:  -2250  90  90
1720434460,317:  -2260  90  90
1720434460,347:  -2286  90  90
1720434460,347:  -2300  90  90
1720434460,347:  -2286  90  90
1720434460,347:  -2245  90  90
1720434460,347:  -2184  90  90
1720434460,347:  -2115  90  90
1720434460,347:  -2049  90  90
1720434460,347:  -1992  90  90
1720434460,347:  -1944  90  90
1720434460,347:  -1900  90  90
1720434460,347:  -1857  90  90
1720434460,347:  -1818  90  90
1720434460,347:  -1781  90  90
1720434460,347:  -1742  90  90
1720434460,347:  -1695  90  90
1720434460,347:  -1639  90  90
1720434460,347:  -1586  90  90
1720434460,347:  -1544  90  90
1720434460,347:  -1513  90  90
1720434460,347:  -1484  90  90
1720434460,347:  -1453  90  90
1720434460,347:  -1423  90  90
1720434460,378:  -1401  90  90
1720434460,378:  -1385  90  90
1720434460,378:  -1362  90  90
1720434460,378:  -1325  90  90
1720434460,378:  -1280  90  90
1720434460,378:  -1242  90  90
1720434460,378:  -1219  90  90
1720434460,378:  -1203  90  90
1720434460,409:  -1183  90  90
1720434460,409:  -1156  90  90
1720434460,409:  -1130  90  90
1720434460,409:  -1116  90  90
1720434460,409:  -1111  90  90
1720434460,409:  -1104  90  90
1720434460,409:  -1091  90  90
1720434460,409:  -1075  90  90
1720434460,409:  -1066  90  90
1720434460,409:  -1062  90  90
1720434460,409:  -1058  90  90
1720434460,409:  -1047  90  90
1720434460,409:  -1035  90  90
1720434460,409:  -1028  90  90
1720434460,409:  -1029  90  90
1720434460,409:  -1031  90  90
1720434460,409:  -1025  90  90
1720434460,409:  -1012  90  90
1720434460,409:  -1000  90  90
1720434460,409:   -995  90  90
1720434460,409:   -995  90  90
1720434460,409:   -993  90  90
1720434460,472:   -986  90  90
1720434460,472:   -974  90  90
1720434460,472:   -961  90  90
1720434460,472:   -951  90  90
1720434460,472:   -941  90  90
1720434460,472:   -926  90  90
1720434460,472:   -903  90  90
1720434460,472:   -875  90  90
1720434460,472:   -847  90  90
1720434460,472:   -819  90  90
1720434460,472:   -787  90  90
1720434460,472:   -747  90  90
1720434460,472:   -705  90  90
1720434460,472:   -669  90  90
1720434460,472:   -643  90  90
1720434460,472:   -620  90  90
1720434460,472:   -590  90  90
1720434460,472:   -550  90  90
1720434460,472:   -510  90  90
1720434460,472:   -476  90  90
1720434460,472:   -448  90  90
1720434460,472:   -419  90  90
1720434460,472:   -385  90  90
1720434460,504:   -347  90  90
1720434460,504:   -311  90  90
1720434460,504:   -278  90  90
1720434460,504:   -246  90  90
1720434460,504:   -215  90  90
1720434460,504:   -188  90  90
1720434460,504:   -161  90  90
1720434460,504:   -131  90  90
1720434460,504:    -96  90  90
1720434460,504:    -60  90  90
1720434460,504:    -31  90  90
1720434460,504:     -6  90  90
1720434460,504:     25  90  90
1720434460,504:     66  90  90
1720434460,504:    110  90  90
1720434460,504:    146  90  90
1720434460,504:    171  90  90
1720434460,504:    194  90  90
1720434460,504:    223  90  90
1720434460,504:    257  90  90
1720434460,504:    283  90  90
1720434460,504:    295  90  90
1720434460,536:    299  90  90
1720434460,536:    307  90  90
1720434460,536:    321  90  90
1720434460,536:    332  90  90
1720434460,536:    334  90  90
1720434460,536:    332  90  90
1720434460,536:    334  90  90
1720434460,536:    339  90  90
1720434460,536:    343  90  90
1720434460,536:    340  90  90
1720434460,536:    335  90  90
1720434460,536:    336  90  90
1720434460,536:    344  90  90
1720434460,536:    352  90  90
1720434460,536:    349  90  90
1720434460,568:    337  90  90
1720434460,568:    324  90  90
1720434460,568:    319  90  90
1720434460,568:    321  90  90
1720434460,568:    323  90  90
1720434460,568:    319  90  90
1720434460,568:    309  90  90
1720434460,568:    299  90  90
1720434460,568:    292  90  90
1720434460,568:    289  90  90
1720434460,568:    288  90  90
1720434460,568:    287  90  90
1720434460,568:    285  90  90
1720434460,568:    282  90  90
1720434460,568:    277  90  90
1720434460,600:    268  90  90
1720434460,600:    261  90  90
1720434460,600:    257  90  90
1720434460,600:    255  90  90
1720434460,600:    249  90  90
1720434460,600:    237  90  90
1720434460,600:    219  90  90
1720434460,600:    203  90  90
1720434460,600:    192  90  90
1720434460,600:    185  90  90
1720434460,600:    179  90  90
1720434460,600:    175  90  90
1720434460,600:    172  90  90
1720434460,600:    167  90  90
1720434460,600:    160  90  90
1720434460,600:    152  90  90
1720434460,600:    144  90  90
1720434460,600:    137  90  90
1720434460,600:    131  90  90
1720434460,600:    125  90  90
1720434460,600:    117  90  90
1720434460,600:    107  90  90
1720434460,600:     96  90  90
1720434460,631:     86  90  90
1720434460,631:     79  90  90
1720434460,631:     76  90  90
1720434460,631:     76  90  90
1720434460,631:     75  90  90
1720434460,631:     73  90  90
1720434460,631:     70  90  90
1720434460,631:     69  90  90
1720434460,631:     68  90  90
1720434460,631:     68  90  90
1720434460,631:     68  90  90
1720434460,631:     69  90  90
1720434460,631:     70  90  90
1720434460,631:     66  90  90
1720434460,631:     57  90  90
1720434460,663:     49  90  90
1720434460,663:     46  90  90
1720434460,663:     48  90  90
1720434460,663:     52  90  90
1720434460,663:     52  90  90
1720434460,663:     49  90  90
1720434460,663:     47  90  90
1720434460,663:     50  90  90
1720434460,663:     59  90  90
1720434460,663:     70  90  90
1720434460,663:     78  90  90
1720434460,663:     82  90  90
1720434460,663:     84  90  90
1720434460,663:     86  90  90
1720434460,663:     89  90  90
1720434460,695:     93  90  90
1720434460,695:     95  90  90
1720434460,695:     97  90  90
1720434460,695:     98  90  90
1720434460,695:     95  90  90
1720434460,695:     90  90  90
1720434460,695:     86  90  90
1720434460,695:     88  90  90
1720434460,695:     94  90  90
1720434460,695:     99  90  90
1720434460,695:     95  90  90
1720434460,695:     87  90  90
1720434460,695:     82  90  90
1720434460,695:     87  90  90
1720434460,695:     98  90  90
1720434460,695:    106  90  90
1720434460,695:    107  90  90
1720434460,695:    107  90  90
1720434460,695:    108  90  90
1720434460,695:    109  90  90
1720434460,695:    108  90  90
1720434460,695:    107  90  90
1720434460,727:    106  90  90
1720434460,727:    106  90  90
1720434460,727:    103  90  90
1720434460,727:     97  90  90
1720434460,727:     91  90  90
1720434460,727:     91  90  90
1720434460,727:     97  90  90
1720434460,727:    103  90  90
1720434460,758:    103  90  90
1720434460,758:     97  90  90
1720434460,758:     92  90  90
1720434460,758:     94  90  90
1720434460,758:     99  90  90
1720434460,758:    100  90  90
1720434460,758:     94  90  90
1720434460,758:     86  90  90
1720434460,758:     84  90  90
1720434460,758:     89  90  90
1720434460,758:     94  90  90
1720434460,758:     92  90  90
1720434460,758:     84  90  90
1720434460,758:     79  90  90
1720434460,758:     83  90  90
1720434460,789:     91  90  90
1720434460,789:     93  90  90
1720434460,789:     85  90  90
1720434460,789:     72  90  90
1720434460,789:     62  90  90
1720434460,789:     59  90  90
1720434460,789:     59  90  90
1720434460,789:     57  90  90
1720434460,789:     51  90  90
1720434460,789:     43  90  90
1720434460,789:     40  90  90
1720434460,789:     44  90  90
1720434460,789:     50  90  90
1720434460,789:     47  90  90
1720434460,789:     36  90  90
1720434460,789:     25  90  90
1720434460,789:     20  90  90
1720434460,789:     17  90  90
1720434460,789:      5  90  90
1720434460,789:    -16  90  90
1720434460,789:    -27  90  90
1720434460,789:    -13  90  90
1720434460,820:     19  90  90
1720434460,820:     46  90  90
1720434460,820:     56  90  90
1720434460,820:     60  90  90
1720434460,820:     77  90  90
1720434460,820:    107  90  90
1720434460,820:    134  90  90
1720434460,820:    143  90  90
1720434460,820:    135  90  90
1720434460,820:    121  90  90
1720434460,820:    110  90  90
1720434460,820:    104  90  90
1720434460,820:    103  90  90
1720434460,820:    108  90  90
1720434460,820:    118  90  90
1720434460,852:    127  90  90
1720434460,852:    131  90  90
1720434460,852:    133  90  90
1720434460,852:    137  90  90
1720434460,852:    141  90  90
1720434460,852:    138  90  90
1720434460,852:    121  90  90
1720434460,852:     97  90  90
1720434460,852:     74  90  90
1720434460,852:     57  90  90
1720434460,852:     44  90  90
1720434460,852:     30  90  90
1720434460,852:     19  90  90
1720434460,852:     16  90  90
1720434460,852:     22  90  90
1720434460,883:     31  90  90
1720434460,883:     37  90  90
1720434460,883:     38  90  90
1720434460,883:     37  90  90
1720434460,883:     38  90  90
1720434460,883:     35  90  90
1720434460,883:     26  90  90
1720434460,883:     12  90  90
1720434460,883:     -1  90  90
1720434460,883:    -11  90  90
1720434460,883:    -19  90  90
1720434460,883:    -27  90  90
1720434460,883:    -28  90  90
1720434460,883:    -18  90  90
1720434460,883:      6  90  90
1720434460,914:     43  90  90
1720434460,914:     86  90  90
1720434460,914:    126  90  90
1720434460,914:    152  90  90
1720434460,914:    141  90  90
1720434460,914:     68  90  90
1720434460,914:    -79  90  90
1720434460,914:   -300  90  90
1720434460,914:   -593  90  90
1720434460,914:   -943  90  90
1720434460,914:  -1301  90  90
1720434460,914:  -1572  90  90
1720434460,914:  -1639  90  90
1720434460,914:  -1424  90  90
1720434460,914:   -912  90  90
1720434460,945:   -105  90  90
1720434460,945:   1025  90  90
1720434460,945:   2514  90  90
1720434460,945:   4313  90  90
1720434460,945:   6234  90  90
1720434460,945:   8001  90  90
1720434460,945:   9379  90  90
1720434460,945:  10254  90  90
1720434460,977:  10630  90  90
1720434460,977:  10553  90  90
1720434460,977:  10062  90  90
1720434460,977:   9184  90  90
1720434460,977:   7957  90  90
1720434460,977:   6464  90  90
1720434460,977:   4872  90  90
1720434460,977:   3407  90  90
1720434460,977:   2252  90  90
1720434460,977:   1438  90  90
1720434460,977:    839  90  90
1720434460,977:    296  90  90
1720434460,977:   -238  90  90
1720434460,977:   -697  90  90
1720434460,977:  -1015  90  90
1720434460,977:  -1222  90  90
1720434460,977:  -1418  90  90
1720434460,977:  -1668  90  90
1720434460,977:  -1950  90  90
1720434461,009:  -2196  90  90
1720434461,009:  -2361  90  90
1720434461,009:  -2449  90  90
1720434461,009:  -2476  90  90
1720434461,009:  -2458  90  90
1720434461,009:  -2412  90  90
1720434461,009:  -2365  90  90
1720434461,009:  -2340  90  90
1720434461,009:  -2344  90  90
1720434461,009:  -2362  90  90
1720434461,009:  -2374  90  90
1720434461,009:  -2362  90  90
1720434461,009:  -2321  90  90
1720434461,009:  -2258  90  90
1720434461,009:  -2186  90  90
1720434461,009:  -2116  90  90
1720434461,009:  -2054  90  90
1720434461,009:  -2001  90  90
1720434461,009:  -1957  90  90
1720434461,009:  -1921  90  90
1720434461,009:  -1887  90  90
1720434461,009:  -1845  90  90
1720434461,009:  -1790  90  90
1720434461,039:  -1730  90  90
1720434461,039:  -1675  90  90
1720434461,039:  -1629  90  90
1720434461,039:  -1585  90  90
1720434461,039:  -1540  90  90
1720434461,039:  -1497  90  90
1720434461,039:  -1462  90  90
1720434461,039:  -1436  90  90
1720434461,039:  -1415  90  90
1720434461,039:  -1389  90  90
1720434461,039:  -1358  90  90
1720434461,039:  -1324  90  90
1720434461,039:  -1289  90  90
1720434461,039:  -1256  90  90
1720434461,039:  -1226  90  90
1720434461,070:  -1201  90  90
1720434461,070:  -1182  90  90
1720434461,070:  -1165  90  90
1720434461,070:  -1146  90  90
1720434461,070:  -1124  90  90
1720434461,070:  -1102  90  90
1720434461,070:  -1081  90  90
1720434461,070:  -1060  90  90
1720434461,070:  -1039  90  90
1720434461,070:  -1021  90  90
1720434461,070:  -1012  90  90
1720434461,070:  -1010  90  90
1720434461,070:  -1009  90  90
1720434461,070:  -1003  90  90
1720434461,070:   -996  90  90
1720434461,102:   -993  90  90
1720434461,102:   -995  90  90
1720434461,102:   -996  90  90
1720434461,102:   -992  90  90
1720434461,102:   -981  90  90
1720434461,102:   -971  90  90
1720434461,102:   -963  90  90
1720434461,102:   -958  90  90
1720434461,102:   -951  90  90
1720434461,102:   -942  90  90
1720434461,102:   -934  90  90
1720434461,102:   -925  90  90
1720434461,102:   -912  90  90
1720434461,102:   -893  90  90
1720434461,102:   -870  90  90
1720434461,134:   -849  90  90
1720434461,134:   -827  90  90
1720434461,134:   -800  90  90
1720434461,134:   -764  90  90
1720434461,134:   -723  90  90
1720434461,134:   -684  90  90
1720434461,134:   -654  90  90
1720434461,134:   -630  90  90
1720434461,134:   -601  90  90
1720434461,134:   -564  90  90
1720434461,134:   -525  90  90
1720434461,134:   -492  90  90
1720434461,134:   -463  90  90
1720434461,134:   -430  90  90
1720434461,134:   -389  90  90
1720434461,166:   -346  90  90
1720434461,166:   -312  90  90
1720434461,166:   -287  90  90
1720434461,166:   -260  90  90
1720434461,166:   -224  90  90
1720434461,166:   -185  90  90
1720434461,166:   -153  90  90
1720434461,166:   -131  90  90
1720434461,166:   -109  90  90
1720434461,166:    -77  90  90
1720434461,166:    -35  90  90
1720434461,166:      8  90  90
1720434461,166:     40  90  90
1720434461,166:     63  90  90
1720434461,166:     88  90  90
1720434461,197:    121  90  90
1720434461,197:    163  90  90
1720434461,197:    203  90  90
1720434461,197:    231  90  90
1720434461,197:    247  90  90
1720434461,197:    264  90  90
1720434461,197:    289  90  90
1720434461,197:    321  90  90
1720434461,197:    347  90  90
1720434461,197:    360  90  90
1720434461,197:    366  90  90
1720434461,197:    373  90  90
1720434461,197:    384  90  90
1720434461,197:    394  90  90
1720434461,197:    398  90  90
1720434461,197:    396  90  90
1720434461,197:    391  90  90
1720434461,197:    387  90  90
1720434461,197:    382  90  90
1720434461,197:    379  90  90
1720434461,197:    379  90  90
1720434461,197:    381  90  90
1720434461,229:    380  90  90
1720434461,229:    372  90  90
1720434461,229:    359  90  90
1720434461,229:    348  90  90
1720434461,229:    343  90  90
1720434461,229:    340  90  90
1720434461,229:    333  90  90
1720434461,229:    321  90  90
1720434461,229:    309  90  90
1720434461,229:    304  90  90
1720434461,229:    308  90  90
1720434461,229:    314  90  90
1720434461,229:    316  90  90
1720434461,229:    311  90  90
1720434461,229:    302  90  90
1720434461,260:    295  90  90
1720434461,260:    293  90  90
1720434461,260:    293  90  90
1720434461,260:    287  90  90
1720434461,260:    274  90  90
1720434461,260:    259  90  90
1720434461,260:    247  90  90
1720434461,260:    243  90  90
1720434461,260:    243  90  90
1720434461,260:    241  90  90
1720434461,260:    234  90  90
1720434461,260:    228  90  90
1720434461,260:    224  90  90
1720434461,260:    224  90  90
1720434461,260:    223  90  90
1720434461,291:    220  90  90
1720434461,291:    214  90  90
1720434461,291:    209  90  90
1720434461,291:    204  90  90
1720434461,291:    201  90  90
1720434461,291:    199  90  90
1720434461,291:    196  90  90
1720434461,291:    189  90  90
1720434461,291:    175  90  90
1720434461,291:    159  90  90
1720434461,291:    148  90  90
1720434461,291:    142  90  90
1720434461,291:    137  90  90
1720434461,291:    128  90  90
1720434461,291:    117  90  90
1720434461,322:    113  90  90
1720434461,322:    117  90  90
1720434461,322:    123  90  90
1720434461,322:    125  90  90
1720434461,322:    121  90  90
1720434461,322:    117  90  90
1720434461,322:    119  90  90
1720434461,322:    126  90  90
1720434461,322:    130  90  90
1720434461,322:    127  90  90
1720434461,322:    119  90  90
1720434461,322:    110  90  90
1720434461,322:    103  90  90
1720434461,322:     98  90  90
1720434461,322:     92  90  90
1720434461,354:     88  90  90
1720434461,354:     85  90  90
1720434461,354:     85  90  90
1720434461,354:     88  90  90
1720434461,354:     96  90  90
1720434461,354:    109  90  90
1720434461,354:    123  90  90
1720434461,354:    129  90  90
1720434461,354:    124  90  90
1720434461,354:    113  90  90
1720434461,354:    106  90  90
1720434461,354:    106  90  90
1720434461,354:    105  90  90
1720434461,354:     98  90  90
1720434461,354:     85  90  90
1720434461,386:     79  90  90
1720434461,386:     84  90  90
1720434461,386:     96  90  90
1720434461,386:    104  90  90
1720434461,386:    102  90  90
1720434461,386:     97  90  90
1720434461,386:     97  90  90
1720434461,386:    104  90  90
1720434461,386:    111  90  90
1720434461,386:    110  90  90
1720434461,386:    101  90  90
1720434461,386:     89  90  90
1720434461,386:     84  90  90
1720434461,386:     88  90  90
1720434461,386:     98  90  90
1720434461,417:    105  90  90
1720434461,417:    104  90  90
1720434461,417:     98  90  90
1720434461,417:     96  90  90
1720434461,417:     99  90  90
1720434461,417:    107  90  90
1720434461,417:    110  90  90
1720434461,417:    106  90  90
1720434461,417:    101  90  90
1720434461,417:     98  90  90
1720434461,417:     98  90  90
1720434461,417:     98  90  90
1720434461,417:     94  90  90
1720434461,417:     87  90  90
1720434461,417:     77  90  90
1720434461,448:     69  90  90
1720434461,448:     64  90  90
1720434461,448:     65  90  90
1720434461,448:     69  90  90
1720434461,448:     72  90  90
1720434461,448:     73  90  90
1720434461,448:     74  90  90
1720434461,448:     80  90  90
1720434461,448:     88  90  90
1720434461,448:     92  90  90
1720434461,448:     89  90  90
1720434461,448:     85  90  90
1720434461,448:     84  90  90
1720434461,448:     85  90  90
1720434461,448:     82  90  90
1720434461,480:     72  90  90
1720434461,480:     58  90  90
1720434461,480:     47  90  90
1720434461,480:     44  90  90
1720434461,480:     46  90  90
1720434461,480:     44  90  90
1720434461,480:     31  90  90
1720434461,480:     12  90  90
1720434461,480:     -4  90  90
1720434461,480:    -10  90  90
1720434461,480:     -9  90  90
1720434461,480:    -12  90  90
1720434461,480:    -21  90  90
1720434461,480:    -29  90  90
1720434461,480:    -23  90  90
1720434461,480:     -2  90  90
1720434461,480:     26  90  90
1720434461,480:     46  90  90
1720434461,480:     58  90  90
1720434461,480:     66  90  90
1720434461,480:     76  90  90
1720434461,480:     90  90  90
1720434461,480:    100  90  90
1720434461,512:    104  90  90
1720434461,512:    103  90  90
1720434461,512:     98  90  90
1720434461,512:     91  90  90
1720434461,512:     83  90  90
1720434461,512:     78  90  90
1720434461,512:     83  90  90
1720434461,512:    101  90  90
1720434461,512:    122  90  90
1720434461,512:    137  90  90
1720434461,512:    140  90  90
1720434461,512:    136  90  90
1720434461,512:    133  90  90
1720434461,512:    130  90  90
1720434461,512:    119  90  90
1720434461,544:     97  90  90
1720434461,544:     71  90  90
1720434461,544:     53  90  90
1720434461,544:     45  90  90
1720434461,544:     43  90  90
1720434461,544:     40  90  90
1720434461,544:     37  90  90
1720434461,544:     42  90  90
1720434461,544:     55  90  90
1720434461,544:     65  90  90
1720434461,544:     64  90  90
1720434461,544:     49  90  90
1720434461,544:     30  90  90
1720434461,544:     17  90  90
1720434461,544:     13  90  90
1720434461,544:     12  90  90
1720434461,544:      9  90  90
1720434461,544:      2  90  90
1720434461,544:     -1  90  90
1720434461,544:      8  90  90
1720434461,544:     27  90  90
1720434461,544:     55  90  90
1720434461,576:     93  90  90
1720434461,576:    131  90  90
1720434461,576:    150  90  90
1720434461,576:    132  90  90
1720434461,576:     59  90  90
1720434461,576:    -78  90  90
1720434461,576:   -285  90  90
1720434461,576:   -566  90  90
1720434461,576:   -910  90  90
1720434461,576:  -1258  90  90
1720434461,576:  -1514  90  90
1720434461,576:  -1592  90  90
1720434461,576:  -1449  90  90
1720434461,576:  -1075  90  90
1720434461,576:   -446  90  90
1720434461,608:    491  90  90
1720434461,608:   1770  90  90
1720434461,608:   3341  90  90
1720434461,608:   5043  90  90
1720434461,608:   6656  90  90
1720434461,608:   7975  90  90
1720434461,608:   8859  90  90
1720434461,608:   9251  90  90
1720434461,640:   9181  90  90
1720434461,640:   8733  90  90
1720434461,640:   7988  90  90
1720434461,640:   6981  90  90
1720434461,640:   5726  90  90
1720434461,640:   4308  90  90
1720434461,640:   2936  90  90
1720434461,640:   1852  90  90
1720434461,640:   1175  90  90
1720434461,640:    811  90  90
1720434461,640:    542  90  90
1720434461,640:    215  90  90
1720434461,640:   -159  90  90
1720434461,640:   -476  90  90
1720434461,640:   -674  90  90
1720434461,671:   -805  90  90
1720434461,671:   -974  90  90
1720434461,671:  -1242  90  90
1720434461,671:  -1567  90  90
1720434461,671:  -1851  90  90
1720434461,671:  -2026  90  90
1720434461,671:  -2081  90  90
1720434461,671:  -2054  90  90
1720434461,671:  -1995  90  90
1720434461,671:  -1940  90  90
1720434461,671:  -1903  90  90
1720434461,671:  -1889  90  90
1720434461,671:  -1896  90  90
1720434461,671:  -1917  90  90
1720434461,671:  -1930  90  90
1720434461,671:  -1916  90  90
1720434461,671:  -1871  90  90
1720434461,671:  -1811  90  90
1720434461,671:  -1754  90  90
1720434461,671:  -1704  90  90
1720434461,671:  -1657  90  90
1720434461,671:  -1608  90  90
1720434461,703:  -1562  90  90
1720434461,703:  -1524  90  90
1720434461,703:  -1491  90  90
1720434461,703:  -1454  90  90
1720434461,703:  -1412  90  90
1720434461,703:  -1372  90  90
1720434461,703:  -1339  90  90
1720434461,703:  -1308  90  90
1720434461,703:  -1268  90  90
1720434461,703:  -1216  90  90
1720434461,703:  -1165  90  90
1720434461,703:  -1129  90  90
1720434461,703:  -1110  90  90
1720434461,703:  -1096  90  90
1720434461,703:  -1074  90  90
1720434461,735:  -1040  90  90
1720434461,735:  -1005  90  90
1720434461,735:   -977  90  90
1720434461,735:   -959  90  90
1720434461,735:   -945  90  90
1720434461,735:   -929  90  90
1720434461,735:   -909  90  90
1720434461,735:   -890  90  90
1720434461,735:   -874  90  90
1720434461,735:   -860  90  90
1720434461,735:   -847  90  90
1720434461,735:   -834  90  90
1720434461,735:   -821  90  90
1720434461,735:   -806  90  90
1720434461,735:   -790  90  90
1720434461,766:   -773  90  90
1720434461,766:   -761  90  90
1720434461,766:   -756  90  90
1720434461,766:   -757  90  90
1720434461,766:   -756  90  90
1720434461,766:   -750  90  90
1720434461,766:   -743  90  90
1720434461,766:   -738  90  90
1720434461,766:   -737  90  90
1720434461,766:   -735  90  90
1720434461,766:   -729  90  90
1720434461,766:   -719  90  90
1720434461,766:   -707  90  90
1720434461,766:   -695  90  90
1720434461,766:   -682  90  90
1720434461,797:   -666  90  90
1720434461,797:   -646  90  90
1720434461,797:   -624  90  90
1720434461,797:   -599  90  90
1720434461,797:   -574  90  90
1720434461,797:   -548  90  90
1720434461,797:   -518  90  90
1720434461,797:   -485  90  90
1720434461,797:   -454  90  90
1720434461,797:   -425  90  90
1720434461,797:   -397  90  90
1720434461,797:   -365  90  90
1720434461,797:   -329  90  90
1720434461,797:   -298  90  90
1720434461,797:   -274  90  90
1720434461,829:   -255  90  90
1720434461,829:   -232  90  90
1720434461,829:   -205  90  90
1720434461,829:   -180  90  90
1720434461,829:   -164  90  90
1720434461,829:   -156  90  90
1720434461,829:   -145  90  90
1720434461,829:   -127  90  90
1720434461,829:   -108  90  90
1720434461,829:    -96  90  90
1720434461,829:    -92  90  90
1720434461,829:    -88  90  90
1720434461,829:    -76  90  90
1720434461,829:    -58  90  90
1720434461,829:    -39  90  90
1720434461,860:    -23  90  90
1720434461,860:     -7  90  90
1720434461,860:     12  90  90
1720434461,860:     32  90  90
1720434461,860:     51  90  90
1720434461,860:     66  90  90
1720434461,860:     79  90  90
1720434461,860:     91  90  90
1720434461,860:    105  90  90
1720434461,860:    121  90  90
1720434461,860:    138  90  90
1720434461,860:    154  90  90
1720434461,860:    170  90  90
1720434461,860:    186  90  90
1720434461,860:    201  90  90
1720434461,891:    219  90  90
1720434461,891:    237  90  90
1720434461,891:    250  90  90
1720434461,891:    255  90  90
1720434461,891:    254  90  90
1720434461,891:    252  90  90
1720434461,891:    255  90  90
1720434461,891:    261  90  90
1720434461,891:    264  90  90
1720434461,891:    262  90  90
1720434461,891:    259  90  90
1720434461,891:    259  90  90
1720434461,891:    264  90  90
1720434461,891:    270  90  90
1720434461,891:    273  90  90
1720434461,891:    275  90  90
1720434461,891:    278  90  90
1720434461,891:    281  90  90
1720434461,891:    281  90  90
1720434461,891:    276  90  90
1720434461,891:    272  90  90
1720434461,891:    272  90  90
1720434461,891:    275  90  90
1720434461,922:    274  90  90
1720434461,922:    265  90  90
1720434461,922:    253  90  90
1720434461,922:    245  90  90
1720434461,922:    240  90  90
1720434461,922:    235  90  90
1720434461,922:    225  90  90
1720434461,954:    212  90  90
1720434461,954:    202  90  90
1720434461,954:    194  90  90
1720434461,954:    187  90  90
1720434461,954:    179  90  90
1720434461,954:    173  90  90
1720434461,954:    174  90  90
1720434461,954:    178  90  90
1720434461,954:    177  90  90
1720434461,954:    167  90  90
1720434461,954:    155  90  90
1720434461,954:    152  90  90
1720434461,954:    159  90  90
1720434461,954:    167  90  90
1720434461,954:    164  90  90
1720434461,954:    149  90  90
1720434461,954:    133  90  90
1720434461,954:    129  90  90
1720434461,954:    133  90  90
1720434461,954:    135  90  90
1720434461,954:    128  90  90
1720434461,954:    118  90  90
1720434461,954:    115  90  90
1720434461,986:    119  90  90
1720434461,986:    123  90  90
1720434461,986:    120  90  90
1720434461,986:    114  90  90
1720434461,986:    112  90  90
1720434461,986:    114  90  90
1720434461,986:    115  90  90
1720434461,986:    109  90  90
1720434461,986:     98  90  90
1720434461,986:     93  90  90
1720434461,986:     97  90  90
1720434461,986:    106  90  90
1720434461,986:    114  90  90
1720434461,986:    115  90  90
1720434461,986:    113  90  90
1720434461,986:    113  90  90
1720434461,986:    116  90  90
1720434461,986:    121  90  90
1720434461,986:    124  90  90
1720434461,986:    123  90  90
1720434462,018:    116  90  90
1720434462,018:    107  90  90
1720434462,018:     99  90  90
1720434462,018:     96  90  90
1720434462,018:     98  90  90
1720434462,018:     97  90  90
1720434462,018:     91  90  90
1720434462,018:     84  90  90
1720434462,018:     81  90  90
1720434462,018:     87  90  90
1720434462,018:     95  90  90
1720434462,018:     98  90  90
1720434462,018:     94  90  90
1720434462,018:     91  90  90
1720434462,018:     92  90  90
1720434462,049:     95  90  90
1720434462,049:     96  90  90
1720434462,049:     93  90  90
1720434462,049:     91  90  90
1720434462,049:     95  90  90
1720434462,049:    100  90  90
1720434462,049:     99  90  90
1720434462,080:     89  90  90
1720434462,080:     80  90  90
1720434462,080:     79  90  90
1720434462,080:     86  90  90
1720434462,080:     91  90  90
1720434462,080:     87  90  90
1720434462,080:     76  90  90
1720434462,080:     68  90  90
1720434462,080:     68  90  90
1720434462,080:     74  90  90
1720434462,080:     78  90  90
1720434462,080:     76  90  90
1720434462,080:     69  90  90
1720434462,080:     61  90  90
1720434462,080:     55  90  90
1720434462,080:     49  90  90
1720434462,080:     44  90  90
1720434462,080:     42  90  90
1720434462,080:     42  90  90
1720434462,080:     42  90  90
1720434462,080:     42  90  90
1720434462,080:     43  90  90
1720434462,080:     47  90  90
1720434462,112:     54  90  90
1720434462,112:     60  90  90
1720434462,112:     63  90  90
1720434462,112:     63  90  90
1720434462,112:     60  90  90
1720434462,112:     55  90  90
1720434462,112:     46  90  90
1720434462,112:     34  90  90
1720434462,112:     24  90  90
1720434462,112:     16  90  90
1720434462,112:      9  90  90
1720434462,112:      3  90  90
1720434462,112:     -4  90  90
1720434462,112:    -11  90  90
1720434462,112:    -16  90  90
1720434462,143:    -18  90  90
1720434462,143:    -17  90  90
1720434462,143:    -16  90  90
1720434462,143:    -21  90  90
1720434462,143:    -34  90  90
1720434462,143:    -52  90  90
1720434462,143:    -69  90  90
1720434462,143:    -79  90  90
1720434462,143:    -83  90  90
1720434462,143:    -80  90  90
1720434462,143:    -66  90  90
1720434462,143:    -38  90  90
1720434462,143:      1  90  90
1720434462,143:     41  90  90
1720434462,143:     72  90  90
1720434462,175:     94  90  90
1720434462,175:    113  90  90
1720434462,175:    130  90  90
1720434462,175:    135  90  90
1720434462,175:    123  90  90
1720434462,175:     95  90  90
1720434462,175:     64  90  90
1720434462,175:     39  90  90
1720434462,175:     27  90  90
1720434462,175:     30  90  90
1720434462,175:     47  90  90
1720434462,175:     72  90  90
1720434462,175:     93  90  90
1720434462,175:    104  90  90
1720434462,175:    108  90  90
1720434462,206:    113  90  90
1720434462,206:    119  90  90
1720434462,206:    115  90  90
1720434462,206:     91  90  90
1720434462,206:     55  90  90
1720434462,206:     26  90  90
1720434462,206:     13  90  90
1720434462,206:     11  90  90
1720434462,206:      9  90  90
1720434462,206:      5  90  90
1720434462,206:      8  90  90
1720434462,206:     21  90  90
1720434462,206:     31  90  90
1720434462,206:     28  90  90
1720434462,206:     14  90  90
1720434462,206:      2  90  90
1720434462,206:      0  90  90
1720434462,206:      3  90  90
1720434462,206:     -2  90  90
1720434462,206:    -19  90  90
1720434462,206:    -38  90  90
