timestamp: ADC HeartRate4sAverage HeartRate30sAverage
1720777354,054:    615  67  71
1720777354,054:    673  67  71
1720777354,054:    662  67  71
1720777354,054:    562  67  71
1720777354,054:    474  67  71
1720777354,054:    490  67  71
1720777354,054:    563  67  71
1720777354,054:    571  67  71
1720777354,054:    477  67  71
1720777354,054:    392  67  71
1720777354,054:    434  67  71
1720777354,054:    574  67  71
1720777354,054:    676  67  71
1720777354,054:    663  67  71
1720777354,054:    585  67  71
1720777354,086:    515  67  71
1720777354,086:    412  67  71
1720777354,086:    173  67  71
1720777354,086:   -225  67  71
1720777354,086:   -664  67  71
1720777354,086:   -994  67  71
1720777354,086:  -1175  67  71
1720777354,086:  -1250  67  71
1720777354,086:  -1216  67  71
1720777354,086:   -961  67  71
1720777354,086:   -358  67  71
1720777354,086:    604  67  71
1720777354,086:   1825  67  71
1720777354,086:   3204  67  71
1720777354,086:   4701  67  71
1720777354,117:   6297  67  71
1720777354,117:   7909  67  71
1720777354,117:   9416  67  71
1720777354,117:  10735  67  71
1720777354,117:  11848  67  71
1720777354,117:  12734  67  71
1720777354,117:  13303  67  71
1720777354,117:  13430  67  71
1720777354,149:  13043  63  67
1720777354,149:  12157  63  67
1720777354,149:  10825  63  67
1720777354,149:   9098  63  67
1720777354,149:   7082  63  67
1720777354,149:   4991  63  67
1720777354,149:   3079  63  67
1720777354,181:   1492  63  67
1720777354,181:    187  63  67
1720777354,181:   -941  63  67
1720777354,181:  -1868  63  67
1720777354,181:  -2418  63  67
1720777354,181:  -2467  63  67
1720777354,181:  -2156  63  67
1720777354,181:  -1842  63  67
1720777354,181:  -1808  63  67
1720777354,181:  -2043  63  67
1720777354,181:  -2315  63  67
1720777354,181:  -2456  63  67
1720777354,181:  -2522  63  67
1720777354,181:  -2669  63  67
1720777354,181:  -2922  63  67
1720777354,181:  -3135  63  67
1720777354,181:  -3162  63  67
1720777354,181:  -3025  63  67
1720777354,181:  -2873  63  67
1720777354,181:  -2790  63  67
1720777354,181:  -2719  63  67
1720777354,181:  -2580  63  67
1720777354,181:  -2420  63  67
1720777354,212:  -2375  63  67
1720777354,212:  -2483  63  67
1720777354,212:  -2611  63  67
1720777354,212:  -2587  63  67
1720777354,212:  -2397  63  67
1720777354,212:  -2178  63  67
1720777354,212:  -2040  63  67
1720777354,212:  -1953  63  67
1720777354,212:  -1831  63  67
1720777354,212:  -1691  63  67
1720777354,212:  -1635  63  67
1720777354,212:  -1696  63  67
1720777354,212:  -1763  63  67
1720777354,212:  -1701  63  67
1720777354,212:  -1529  63  67
1720777354,212:  -1393  63  67
1720777354,212:  -1380  63  67
1720777354,212:  -1410  63  67
1720777354,212:  -1349  63  67
1720777354,212:  -1205  63  67
1720777354,212:  -1121  63  67
1720777354,212:  -1184  63  67
1720777354,243:  -1291  63  67
1720777354,243:  -1272  63  67
1720777354,243:  -1104  63  67
1720777354,243:   -949  63  67
1720777354,243:   -944  63  67
1720777354,243:  -1035  63  67
1720777354,243:  -1044  63  67
1720777354,243:   -908  63  67
1720777354,243:   -750  63  67
1720777354,243:   -718  63  67
1720777354,243:   -796  63  67
1720777354,243:   -834  63  67
1720777354,243:   -758  63  67
1720777354,243:   -669  63  67
1720777354,243:   -689  63  67
1720777354,243:   -788  63  67
1720777354,243:   -813  63  67
1720777354,243:   -699  63  67
1720777354,243:   -563  63  67
1720777354,243:   -556  63  67
1720777354,243:   -656  63  67
1720777354,243:   -686  63  67
1720777354,243:   -545  63  67
1720777354,274:   -345  63  67
1720777354,274:   -274  63  67
1720777354,274:   -359  63  67
1720777354,274:   -441  63  67
1720777354,274:   -385  63  67
1720777354,274:   -264  63  67
1720777354,274:   -248  63  67
1720777354,274:   -379  63  67
1720777354,274:   -502  63  67
1720777354,274:   -466  63  67
1720777354,274:   -318  63  67
1720777354,274:   -235  63  67
1720777354,274:   -293  63  67
1720777354,274:   -372  63  67
1720777354,274:   -317  63  67
1720777354,306:   -148  63  67
1720777354,306:    -29  63  67
1720777354,306:    -58  63  67
1720777354,306:   -150  63  67
1720777354,306:   -155  63  67
1720777354,306:    -62  63  67
1720777354,306:      1  63  67
1720777354,306:    -49  63  67
1720777354,306:   -138  63  67
1720777354,306:   -136  63  67
1720777354,306:    -40  63  67
1720777354,306:     24  63  67
1720777354,306:    -27  63  67
1720777354,306:   -113  63  67
1720777354,306:    -91  63  67
1720777354,337:     46  63  67
1720777354,337:    159  63  67
1720777354,337:    134  63  67
1720777354,337:     34  63  67
1720777354,337:      8  63  67
1720777354,337:     95  63  67
1720777354,337:    178  63  67
1720777354,337:    150  63  67
1720777354,337:     55  63  67
1720777354,337:     35  63  67
1720777354,337:    134  63  67
1720777354,337:    243  63  67
1720777354,337:    247  63  67
1720777354,337:    177  63  67
1720777354,337:    168  63  67
1720777354,368:    273  63  67
1720777354,368:    387  63  67
1720777354,368:    395  63  67
1720777354,368:    320  63  67
1720777354,368:    299  63  67
1720777354,368:    392  63  67
1720777354,368:    500  63  67
1720777354,368:    505  63  67
1720777354,368:    427  63  67
1720777354,368:    399  63  67
1720777354,368:    486  63  67
1720777354,368:    584  63  67
1720777354,368:    565  63  67
1720777354,368:    448  63  67
1720777354,368:    384  63  67
1720777354,400:    457  63  67
1720777354,400:    570  63  67
1720777354,400:    569  63  67
1720777354,400:    450  63  67
1720777354,400:    361  63  67
1720777354,400:    414  63  67
1720777354,400:    531  63  67
1720777354,400:    553  63  67
1720777354,400:    441  63  67
1720777354,400:    331  63  67
1720777354,400:    346  63  67
1720777354,400:    442  63  67
1720777354,400:    474  63  67
1720777354,400:    390  63  67
1720777354,400:    291  63  67
1720777354,400:    292  63  67
1720777354,400:    366  63  67
1720777354,400:    397  63  67
1720777354,400:    336  63  67
1720777354,432:    265  63  67
1720777354,432:    273  63  67
1720777354,432:    330  63  67
1720777354,432:    338  63  67
1720777354,432:    268  63  67
1720777354,432:    205  63  67
1720777354,432:    236  63  67
1720777354,432:    325  63  67
1720777354,432:    361  63  67
1720777354,432:    297  63  67
1720777354,432:    217  63  67
1720777354,432:    236  63  67
1720777354,432:    351  63  67
1720777354,432:    441  63  67
1720777354,432:    406  63  67
1720777354,462:    286  63  67
1720777354,462:    202  63  67
1720777354,462:    216  63  67
1720777354,462:    261  63  67
1720777354,462:    247  63  67
1720777354,462:    174  63  67
1720777354,462:    133  63  67
1720777354,462:    179  63  67
1720777354,462:    260  63  67
1720777354,462:    289  63  67
1720777354,462:    263  63  67
1720777354,462:    263  63  67
1720777354,462:    333  63  67
1720777354,462:    406  63  67
1720777354,462:    390  63  67
1720777354,493:    291  63  67
1720777354,493:    224  63  67
1720777354,493:    261  63  67
1720777354,493:    334  63  67
1720777354,493:    334  63  67
1720777354,493:    250  63  67
1720777354,493:    188  63  67
1720777354,493:    227  63  67
1720777354,493:    308  63  67
1720777354,493:    314  63  67
1720777354,493:    225  63  67
1720777354,493:    147  63  67
1720777354,493:    176  63  67
1720777354,493:    266  63  67
1720777354,493:    296  63  67
1720777354,525:    223  63  67
1720777354,525:    139  63  67
1720777354,525:    142  63  67
1720777354,525:    213  63  67
1720777354,525:    245  63  67
1720777354,525:    188  63  67
1720777354,525:    115  63  67
1720777354,525:    122  63  67
1720777354,525:    198  63  67
1720777354,525:    244  63  67
1720777354,525:    207  63  67
1720777354,525:    150  63  67
1720777354,525:    170  63  67
1720777354,525:    259  63  67
1720777354,525:    312  63  67
1720777354,557:    263  63  67
1720777354,557:    175  63  67
1720777354,557:    158  63  67
1720777354,557:    225  63  67
1720777354,557:    275  63  67
1720777354,557:    232  63  67
1720777354,557:    145  63  67
1720777354,557:    129  63  67
1720777354,557:    204  63  67
1720777354,557:    270  63  67
1720777354,557:    235  63  67
1720777354,557:    139  63  67
1720777354,557:    108  63  67
1720777354,557:    180  63  67
1720777354,557:    262  63  67
1720777354,557:    247  63  67
1720777354,557:    157  63  67
1720777354,557:    115  63  67
1720777354,557:    173  63  67
1720777354,557:    249  63  67
1720777354,557:    238  63  67
1720777354,557:    154  63  67
1720777354,557:    114  63  67
1720777354,588:    172  63  67
1720777354,588:    246  63  67
1720777354,588:    230  63  67
1720777354,588:    136  63  67
1720777354,588:     85  63  67
1720777354,588:    142  63  67
1720777354,588:    221  63  67
1720777354,588:    204  63  67
1720777354,588:     97  63  67
1720777354,588:     31  63  67
1720777354,588:     90  63  67
1720777354,588:    201  63  67
1720777354,588:    228  63  67
1720777354,588:    151  63  67
1720777354,588:     86  63  67
1720777354,619:    131  63  67
1720777354,619:    232  63  67
1720777354,619:    260  63  67
1720777354,619:    178  63  67
1720777354,619:     92  63  67
1720777354,619:    110  63  67
1720777354,619:    197  63  67
1720777354,649:    222  63  67
1720777354,649:    133  63  67
1720777354,649:     22  63  67
1720777354,649:     12  63  67
1720777354,649:     93  63  67
1720777354,649:    145  63  67
1720777354,649:     99  63  67
1720777354,649:     23  63  67
1720777354,649:     33  63  67
1720777354,649:    130  63  67
1720777354,649:    200  63  67
1720777354,649:    167  63  67
1720777354,649:     89  63  67
1720777354,649:     86  63  67
1720777354,649:    169  63  67
1720777354,649:    227  63  67
1720777354,649:    173  63  67
1720777354,649:     67  63  67
1720777354,649:     50  63  67
1720777354,649:    155  63  67
1720777354,649:    262  63  67
1720777354,649:    245  63  67
1720777354,649:    134  63  67
1720777354,680:     81  63  67
1720777354,680:    159  63  67
1720777354,680:    270  63  67
1720777354,680:    270  63  67
1720777354,680:    151  63  67
1720777354,680:     57  63  67
1720777354,680:     99  63  67
1720777354,680:    223  63  67
1720777354,680:    284  63  67
1720777354,680:    229  63  67
1720777354,680:    150  63  67
1720777354,680:    147  63  67
1720777354,680:    203  63  67
1720777354,680:    221  63  67
1720777354,680:    159  63  67
1720777354,711:     85  63  67
1720777354,711:     62  63  67
1720777354,711:     62  63  67
1720777354,711:     22  63  67
1720777354,711:    -47  63  67
1720777354,711:    -58  63  67
1720777354,711:     21  63  67
1720777354,711:     99  63  67
1720777354,711:     73  63  67
1720777354,711:    -32  63  67
1720777354,711:    -77  63  67
1720777354,711:     11  63  67
1720777354,711:    136  63  67
1720777354,711:    152  63  67
1720777354,711:     48  63  67
1720777354,744:    -34  63  67
1720777354,744:      9  63  67
1720777354,744:    109  63  67
1720777354,744:    120  63  67
1720777354,744:     13  63  67
1720777354,744:    -87  63  67
1720777354,744:    -67  63  67
1720777354,744:     25  63  67
1720777354,744:     52  63  67
1720777354,744:    -33  63  67
1720777354,744:   -126  63  67
1720777354,744:   -112  63  67
1720777354,744:    -29  63  67
1720777354,744:     -5  63  67
1720777354,744:    -91  63  67
1720777354,775:   -188  63  67
1720777354,775:   -182  63  67
1720777354,775:    -95  63  67
1720777354,775:    -57  63  67
1720777354,775:   -127  63  67
1720777354,775:   -216  63  67
1720777354,775:   -205  63  67
1720777354,775:   -109  63  67
1720777354,775:    -60  63  67
1720777354,775:   -133  63  67
1720777354,775:   -238  63  67
1720777354,775:   -237  63  67
1720777354,775:   -132  63  67
1720777354,775:    -69  63  67
1720777354,775:   -151  63  67
1720777354,806:   -298  63  67
1720777354,806:   -345  63  67
1720777354,806:   -256  63  67
1720777354,806:   -171  63  67
1720777354,806:   -217  63  67
1720777354,806:   -345  63  67
1720777354,806:   -385  63  67
1720777354,806:   -274  63  67
1720777354,806:   -135  63  67
1720777354,806:   -120  63  67
1720777354,806:   -217  63  67
1720777354,806:   -279  63  67
1720777354,806:   -221  63  67
1720777354,806:   -133  63  67
1720777354,806:   -144  63  67
1720777354,806:   -253  63  67
1720777354,806:   -328  63  67
1720777354,806:   -290  63  67
1720777354,806:   -217  63  67
1720777354,806:   -228  63  67
1720777354,806:   -320  63  67
1720777354,806:   -366  63  67
1720777354,837:   -286  63  67
1720777354,837:   -164  63  67
1720777354,837:   -140  63  67
1720777354,837:   -230  63  67
1720777354,837:   -304  63  67
1720777354,837:   -255  63  67
1720777354,837:   -140  63  67
1720777354,837:   -100  63  67
1720777354,868:   -181  63  67
1720777354,868:   -279  63  67
1720777354,868:   -279  63  67
1720777354,868:   -203  63  67
1720777354,868:   -164  63  67
1720777354,868:   -212  63  67
1720777354,868:   -273  63  67
1720777354,868:   -255  63  67
1720777354,868:   -184  63  67
1720777354,868:   -163  63  67
1720777354,868:   -224  63  67
1720777354,868:   -281  63  67
1720777354,868:   -248  63  67
1720777354,868:   -161  63  67
1720777354,868:   -141  63  67
1720777354,899:   -227  63  67
1720777354,899:   -316  63  67
1720777354,899:   -288  63  67
1720777354,899:   -168  63  67
1720777354,899:    -97  63  67
1720777354,899:   -151  63  67
1720777354,899:   -245  63  67
1720777354,899:   -247  63  67
1720777354,899:   -153  63  67
1720777354,899:    -87  63  67
1720777354,899:   -134  63  67
1720777354,899:   -224  63  67
1720777354,899:   -226  63  67
1720777354,899:   -128  63  67
1720777354,899:    -53  63  67
1720777354,899:   -100  63  67
1720777354,899:   -211  63  67
1720777354,899:   -243  63  67
1720777354,899:   -160  63  67
1720777354,899:    -80  63  67
1720777354,899:   -114  63  67
1720777354,899:   -223  63  67
1720777354,930:   -263  63  67
1720777354,930:   -183  63  67
1720777354,930:    -84  63  67
1720777354,930:    -90  63  67
1720777354,930:   -182  63  67
1720777354,930:   -227  63  67
1720777354,930:   -162  63  67
1720777354,930:    -79  63  67
1720777354,930:    -98  63  67
1720777354,930:   -203  63  67
1720777354,930:   -260  63  67
1720777354,930:   -193  63  67
1720777354,930:    -86  63  67
1720777354,930:    -70  63  67
1720777354,930:   -149  63  67
1720777354,961:   -204  63  67
1720777354,961:   -153  63  67
1720777354,961:    -68  63  67
1720777354,961:    -69  63  67
1720777354,961:   -165  63  67
1720777354,961:   -237  63  67
1720777354,961:   -196  63  67
1720777354,961:    -99  63  67
1720777354,961:    -72  63  67
1720777354,961:   -142  63  67
1720777354,961:   -203  63  67
1720777354,961:   -158  63  67
1720777354,961:    -50  63  67
1720777354,961:     -6  63  67
1720777354,961:    -72  63  67
1720777354,992:   -150  63  67
1720777354,992:   -131  63  67
1720777354,992:    -39  63  67
1720777354,992:      6  63  67
1720777354,992:    -56  63  67
1720777354,992:   -146  63  67
1720777354,992:   -156  63  67
1720777354,992:    -89  63  67
1720777354,992:    -47  63  67
1720777354,992:    -88  63  67
1720777354,992:   -141  63  67
1720777354,992:   -110  63  67
1720777354,992:    -11  63  67
1720777354,992:     45  63  67
1720777354,992:      3  63  67
1720777355,024:    -54  63  67
1720777355,024:    -18  63  67
1720777355,024:     89  63  67
1720777355,024:    128  63  67
1720777355,024:     28  63  67
1720777355,024:   -110  63  67
1720777355,024:   -122  63  67
1720777355,024:      7  63  67
1720777355,024:    124  63  67
1720777355,024:     92  63  67
1720777355,024:    -41  63  67
1720777355,024:   -108  63  67
1720777355,024:    -31  63  67
1720777355,024:     80  63  67
1720777355,024:     80  63  67
1720777355,056:    -34  63  67
1720777355,056:   -130  63  67
1720777355,056:   -115  63  67
1720777355,056:    -42  63  67
1720777355,056:    -23  63  67
1720777355,056:    -73  63  67
1720777355,056:    -99  63  67
1720777355,056:    -43  63  67
1720777355,087:     33  63  67
1720777355,087:     38  63  67
1720777355,087:    -28  63  67
1720777355,087:    -67  63  67
1720777355,087:    -24  63  67
1720777355,087:     33  63  67
1720777355,087:      4  63  67
1720777355,087:   -103  63  67
1720777355,087:   -176  63  67
1720777355,087:   -147  63  67
1720777355,087:    -81  63  67
1720777355,087:    -83  63  67
1720777355,087:   -153  63  67
1720777355,087:   -181  63  67
1720777355,087:    -99  63  67
1720777355,118:     26  63  67
1720777355,118:     69  63  67
1720777355,118:      0  63  67
1720777355,118:    -97  63  67
1720777355,118:   -161  63  67
1720777355,118:   -258  63  67
1720777355,118:   -508  63  67
1720777355,118:   -923  63  67
1720777355,118:  -1363  63  67
1720777355,118:  -1657  63  67
1720777355,118:  -1759  63  67
1720777355,118:  -1728  63  67
1720777355,118:  -1585  63  67
1720777355,118:  -1235  63  67
1720777355,118:   -545  63  67
1720777355,118:    513  63  67
1720777355,118:   1835  63  67
1720777355,118:   3287  63  67
1720777355,118:   4797  63  67
1720777355,118:   6342  63  67
1720777355,118:   7874  63  67
1720777355,118:   9299  63  67
1720777355,149:  10531  59  64
1720777355,149:  11527  59  64
1720777355,149:  12249  59  64
1720777355,149:  12616  59  64
1720777355,149:  12522  59  64
1720777355,149:  11915  59  64
1720777355,149:  10827  59  64
1720777355,149:   9349  59  64
1720777355,149:   7579  59  64
1720777355,149:   5645  59  64
1720777355,149:   3731  59  64
1720777355,149:   2025  59  64
1720777355,149:    618  59  64
1720777355,149:   -531  59  64
1720777355,149:  -1490  59  64
1720777355,149:  -2217  59  64
1720777355,149:  -2576  59  64
1720777355,149:  -2524  59  64
1720777355,149:  -2249  59  64
1720777355,149:  -2067  59  64
1720777355,149:  -2162  59  64
1720777355,149:  -2449  59  64
1720777355,149:  -2699  59  64
1720777355,181:  -2805  59  64
1720777355,181:  -2863  59  64
1720777355,181:  -3008  59  64
1720777355,181:  -3231  59  64
1720777355,181:  -3379  59  64
1720777355,181:  -3344  59  64
1720777355,181:  -3187  59  64
1720777355,181:  -3047  59  64
1720777355,181:  -2975  59  64
1720777355,181:  -2897  59  64
1720777355,181:  -2756  59  64
1720777355,181:  -2629  59  64
1720777355,181:  -2639  59  64
1720777355,181:  -2782  59  64
1720777355,181:  -2893  59  64
1720777355,212:  -2822  59  64
1720777355,212:  -2607  59  64
1720777355,212:  -2416  59  64
1720777355,212:  -2352  59  64
1720777355,212:  -2347  59  64
1720777355,212:  -2281  59  64
1720777355,212:  -2158  59  64
1720777355,244:  -2090  59  64
1720777355,244:  -2136  59  64
1720777355,244:  -2200  59  64
1720777355,244:  -2144  59  64
1720777355,244:  -1966  59  64
1720777355,244:  -1800  59  64
1720777355,244:  -1744  59  64
1720777355,244:  -1750  59  64
1720777355,244:  -1705  59  64
1720777355,244:  -1599  59  64
1720777355,244:  -1535  59  64
1720777355,244:  -1573  59  64
1720777355,244:  -1635  59  64
1720777355,244:  -1591  59  64
1720777355,244:  -1440  59  64
1720777355,244:  -1309  59  64
1720777355,244:  -1292  59  64
1720777355,244:  -1335  59  64
1720777355,244:  -1311  59  64
1720777355,244:  -1197  59  64
1720777355,244:  -1102  59  64
1720777355,244:  -1114  59  64
1720777355,244:  -1178  59  64
1720777355,275:  -1166  59  64
1720777355,275:  -1048  59  64
1720777355,275:   -935  59  64
1720777355,275:   -932  59  64
1720777355,275:   -996  59  64
1720777355,275:   -989  59  64
1720777355,275:   -866  59  64
1720777355,275:   -739  59  64
1720777355,275:   -735  59  64
1720777355,275:   -834  59  64
1720777355,275:   -890  59  64
1720777355,275:   -819  59  64
1720777355,275:   -707  59  64
1720777355,275:   -687  59  64
1720777355,275:   -765  59  64
1720777355,307:   -816  59  64
1720777355,307:   -750  59  64
1720777355,307:   -640  59  64
1720777355,307:   -615  59  64
1720777355,307:   -688  59  64
1720777355,307:   -734  59  64
1720777355,307:   -663  59  64
1720777355,307:   -544  59  64
1720777355,307:   -521  59  64
1720777355,307:   -615  59  64
1720777355,307:   -692  59  64
1720777355,307:   -635  59  64
1720777355,307:   -500  59  64
1720777355,307:   -445  59  64
1720777355,307:   -527  59  64
1720777355,338:   -624  59  64
1720777355,338:   -594  59  64
1720777355,338:   -459  59  64
1720777355,338:   -372  59  64
1720777355,338:   -422  59  64
1720777355,338:   -521  59  64
1720777355,338:   -519  59  64
1720777355,338:   -407  59  64
1720777355,338:   -314  59  64
1720777355,338:   -337  59  64
1720777355,338:   -413  59  64
1720777355,338:   -403  59  64
1720777355,338:   -283  59  64
1720777355,338:   -175  59  64
1720777355,338:   -182  59  64
1720777355,338:   -259  59  64
1720777355,338:   -269  59  64
1720777355,338:   -177  59  64
1720777355,338:    -88  59  64
1720777355,338:   -103  59  64
1720777355,338:   -182  59  64
1720777355,338:   -203  59  64
1720777355,370:   -128  59  64
1720777355,370:    -53  59  64
1720777355,370:    -67  59  64
1720777355,370:   -121  59  64
1720777355,370:    -97  59  64
1720777355,370:     23  59  64
1720777355,370:    122  59  64
1720777355,370:    104  59  64
1720777355,370:     21  59  64
1720777355,370:     20  59  64
1720777355,370:    138  59  64
1720777355,370:    256  59  64
1720777355,370:    255  59  64
1720777355,370:    170  59  64
1720777355,370:    147  59  64
1720777355,401:    247  59  64
1720777355,401:    363  59  64
1720777355,401:    365  59  64
1720777355,401:    271  59  64
1720777355,401:    228  59  64
1720777355,401:    318  59  64
1720777355,401:    448  59  64
1720777355,401:    476  59  64
1720777355,401:    389  59  64
1720777355,401:    317  59  64
1720777355,401:    362  59  64
1720777355,401:    465  59  64
1720777355,401:    490  59  64
1720777355,432:    401  59  64
1720777355,432:    311  59  64
1720777355,432:    328  59  64
1720777355,432:    415  59  64
1720777355,432:    443  59  64
1720777355,432:    367  59  64
1720777355,432:    280  59  64
1720777355,432:    287  59  64
1720777355,432:    364  59  64
1720777355,432:    394  59  64
1720777355,432:    323  59  64
1720777355,432:    235  59  64
1720777355,432:    240  59  64
1720777355,432:    325  59  64
1720777355,432:    373  59  64
1720777355,432:    319  59  64
1720777355,432:    233  59  64
1720777355,432:    224  59  64
1720777355,432:    292  59  64
1720777355,432:    325  59  64
1720777355,432:    258  59  64
1720777355,432:    161  59  64
1720777355,464:    156  59  64
1720777355,464:    254  59  64
1720777355,464:    335  59  64
1720777355,464:    308  59  64
1720777355,464:    224  59  64
1720777355,464:    204  59  64
1720777355,464:    271  59  64
1720777355,464:    328  59  64
1720777355,464:    290  59  64
1720777355,464:    206  59  64
1720777355,464:    192  59  64
1720777355,464:    267  59  64
1720777355,464:    320  59  64
1720777355,464:    260  59  64
1720777355,464:    145  59  64
1720777355,496:    115  59  64
1720777355,496:    208  59  64
1720777355,496:    301  59  64
1720777355,496:    267  59  64
1720777355,496:    135  59  64
1720777355,496:     59  59  64
1720777355,496:    125  59  64
1720777355,496:    246  59  64
1720777355,527:    280  59  64
1720777355,527:    207  59  64
1720777355,527:    140  59  64
1720777355,527:    170  59  64
1720777355,527:    243  59  64
1720777355,527:    251  59  64
1720777355,527:    180  59  64
1720777355,527:    130  59  64
1720777355,527:    173  59  64
1720777355,527:    250  59  64
1720777355,527:    247  59  64
1720777355,527:    157  59  64
1720777355,527:     90  59  64
1720777355,527:    135  59  64
1720777355,527:    230  59  64
1720777355,527:    251  59  64
1720777355,527:    168  59  64
1720777355,527:     89  59  64
1720777355,527:    115  59  64
1720777355,527:    202  59  64
1720777355,527:    232  59  64
1720777355,527:    166  59  64
1720777355,558:    101  59  64
1720777355,558:    131  59  64
1720777355,558:    219  59  64
1720777355,558:    243  59  64
1720777355,558:    166  59  64
1720777355,558:     87  59  64
1720777355,558:    112  59  64
1720777355,558:    206  59  64
1720777355,558:    243  59  64
1720777355,558:    170  59  64
1720777355,558:     80  59  64
1720777355,558:     91  59  64
1720777355,558:    187  59  64
1720777355,558:    240  59  64
1720777355,558:    180  59  64
1720777355,590:     84  59  64
1720777355,590:     80  59  64
1720777355,590:    171  59  64
1720777355,590:    238  59  64
1720777355,590:    191  59  64
1720777355,590:     87  59  64
1720777355,590:     53  59  64
1720777355,590:    122  59  64
1720777355,590:    192  59  64
1720777355,590:    166  59  64
1720777355,590:     73  59  64
1720777355,590:     31  59  64
1720777355,590:     88  59  64
1720777355,590:    164  59  64
1720777355,590:    158  59  64
1720777355,622:     83  59  64
1720777355,622:     44  59  64
1720777355,622:     92  59  64
1720777355,622:    157  59  64
1720777355,622:    143  59  64
1720777355,622:     62  59  64
1720777355,622:     26  59  64
1720777355,622:     96  59  64
1720777355,622:    195  59  64
1720777355,622:    205  59  64
1720777355,622:    122  59  64
1720777355,622:     63  59  64
1720777355,622:    110  59  64
1720777355,622:    199  59  64
1720777355,622:    203  59  64
1720777355,653:    100  59  64
1720777355,653:      6  59  64
1720777355,653:     28  59  64
1720777355,653:    117  59  64
1720777355,653:    146  59  64
1720777355,653:     73  59  64
1720777355,653:      4  59  64
1720777355,653:     43  59  64
1720777355,653:    148  59  64
1720777355,653:    190  59  64
1720777355,653:    119  59  64
1720777355,653:     35  59  64
1720777355,653:     52  59  64
1720777355,653:    144  59  64
1720777355,653:    184  59  64
1720777355,685:    113  59  64
1720777355,685:     23  59  64
1720777355,685:     31  59  64
1720777355,685:    119  59  64
1720777355,685:    162  59  64
1720777355,685:     95  59  64
1720777355,685:      4  59  64
1720777355,685:     12  59  64
1720777355,685:    109  59  64
1720777355,685:    166  59  64
1720777355,685:    108  59  64
1720777355,685:     20  59  64
1720777355,685:     31  59  64
1720777355,685:    135  59  64
1720777355,685:    191  59  64
1720777355,685:    113  59  64
1720777355,685:     -9  59  64
1720777355,685:    -19  59  64
1720777355,685:     95  59  64
1720777355,685:    187  59  64
1720777355,685:    140  59  64
1720777355,685:     23  59  64
1720777355,685:     -6  59  64
1720777355,716:     91  59  64
1720777355,716:    183  59  64
1720777355,716:    149  59  64
1720777355,716:     36  59  64
1720777355,716:     -3  59  64
1720777355,716:     84  59  64
1720777355,716:    185  59  64
1720777355,748:    179  59  64
1720777355,748:     90  59  64
1720777355,748:     54  59  64
1720777355,748:    125  59  64
1720777355,748:    207  59  64
1720777355,748:    187  59  64
1720777355,748:     82  59  64
1720777355,748:     23  59  64
1720777355,748:     75  59  64
1720777355,748:    154  59  64
1720777355,748:    142  59  64
1720777355,748:     45  59  64
1720777355,748:    -11  59  64
1720777355,748:     51  59  64
1720777355,748:    156  59  64
1720777355,748:    173  59  64
1720777355,748:     79  59  64
1720777355,748:     -1  59  64
1720777355,748:     41  59  64
1720777355,748:    156  59  64
1720777355,748:    207  59  64
1720777355,748:    138  59  64
1720777355,748:     49  59  64
1720777355,780:     61  59  64
1720777355,780:    155  59  64
1720777355,780:    206  59  64
1720777355,780:    146  59  64
1720777355,780:     54  59  64
1720777355,780:     48  59  64
1720777355,780:    129  59  64
1720777355,780:    188  59  64
1720777355,780:    153  59  64
1720777355,780:     86  59  64
1720777355,780:     91  59  64
1720777355,780:    164  59  64
1720777355,780:    205  59  64
1720777355,780:    155  59  64
1720777355,780:     85  59  64
1720777355,812:    103  59  64
1720777355,812:    199  59  64
1720777355,812:    254  59  64
1720777355,812:    196  59  64
1720777355,812:     98  59  64
1720777355,812:     89  59  64
1720777355,812:    183  59  64
1720777355,812:    261  59  64
1720777355,812:    229  59  64
1720777355,812:    143  59  64
1720777355,812:    136  59  64
1720777355,812:    235  59  64
1720777355,812:    327  59  64
1720777355,812:    308  59  64
1720777355,812:    220  59  64
1720777355,844:    198  59  64
1720777355,844:    287  59  64
1720777355,844:    374  59  64
1720777355,844:    337  59  64
1720777355,844:    208  59  64
1720777355,844:    144  59  64
1720777355,844:    224  59  64
1720777355,844:    346  59  64
1720777355,844:    358  59  64
1720777355,844:    252  59  64
1720777355,844:    173  59  64
1720777355,844:    227  59  64
1720777355,844:    343  59  64
1720777355,844:    375  59  64
1720777355,844:    289  59  64
1720777355,875:    211  59  64
1720777355,875:    250  59  64
1720777355,875:    356  59  64
1720777355,875:    394  59  64
1720777355,875:    321  59  64
1720777355,875:    245  59  64
1720777355,875:    272  59  64
1720777355,875:    359  59  64
1720777355,875:    381  59  64
1720777355,875:    304  59  64
1720777355,875:    232  59  64
1720777355,875:    267  59  64
1720777355,875:    363  59  64
1720777355,875:    389  59  64
1720777355,875:    310  59  64
1720777355,906:    231  59  64
1720777355,906:    264  59  64
1720777355,906:    367  59  64
1720777355,906:    402  59  64
1720777355,906:    313  59  64
1720777355,906:    202  59  64
1720777355,906:    202  59  64
1720777355,906:    300  59  64
1720777355,906:    369  59  64
1720777355,906:    329  59  64
1720777355,906:    250  59  64
1720777355,906:    250  59  64
1720777355,906:    335  59  64
1720777355,906:    393  59  64
1720777355,906:    348  59  64
1720777355,906:    259  59  64
1720777355,906:    243  59  64
1720777355,906:    316  59  64
1720777355,906:    372  59  64
1720777355,906:    329  59  64
1720777355,906:    237  59  64
1720777355,906:    217  59  64
1720777355,937:    295  59  64
1720777355,937:    366  59  64
1720777355,937:    335  59  64
1720777355,937:    241  59  64
1720777355,937:    208  59  64
1720777355,937:    275  59  64
1720777355,937:    346  59  64
1720777355,937:    322  59  64
1720777355,937:    232  59  64
1720777355,937:    196  59  64
1720777355,937:    255  59  64
1720777355,937:    317  59  64
1720777355,937:    281  59  64
1720777355,937:    177  59  64
1720777355,937:    131  59  64
1720777355,968:    191  59  64
1720777355,968:    261  59  64
1720777355,968:    236  59  64
1720777355,968:    140  59  64
1720777355,968:    105  59  64
1720777355,968:    184  59  64
1720777355,968:    280  59  64
1720777355,968:    272  59  64
1720777355,968:    176  59  64
1720777355,968:    129  59  64
1720777355,968:    206  59  64
1720777355,968:    315  59  64
1720777355,968:    317  59  64
1720777355,968:    205  59  64
1720777355,968:    112  59  64
1720777355,999:    137  59  64
1720777355,999:    218  59  64
1720777355,999:    219  59  64
1720777355,999:    117  59  64
1720777355,999:     34  59  64
1720777355,999:     74  59  64
1720777355,999:    183  59  64
1720777355,999:    220  59  64
1720777356,030:    142  59  64
1720777356,030:     65  59  64
1720777356,030:    103  59  64
1720777356,030:    218  59  64
1720777356,030:    262  59  64
1720777356,030:    179  59  64
1720777356,030:     80  59  64
1720777356,030:    106  59  64
1720777356,030:    234  59  64
1720777356,030:    311  59  64
1720777356,030:    251  59  64
1720777356,030:    145  59  64
1720777356,030:    137  59  64
1720777356,030:    232  59  64
1720777356,030:    292  59  64
1720777356,061:    220  59  64
1720777356,061:     96  59  64
1720777356,061:     72  59  64
1720777356,061:    169  59  64
1720777356,061:    253  59  64
1720777356,061:    213  59  64
1720777356,061:    107  59  64
1720777356,061:     84  59  64
1720777356,061:    178  59  64
1720777356,061:    264  59  64
1720777356,061:    222  59  64
1720777356,061:     96  59  64
1720777356,061:     44  59  64
1720777356,061:    130  59  64
1720777356,061:    245  59  64
1720777356,061:    249  59  64
1720777356,061:    151  59  64
1720777356,061:     90  59  64
1720777356,061:    141  59  64
1720777356,061:    222  59  64
1720777356,061:    205  59  64
1720777356,061:     92  59  64
1720777356,092:     19  59  64
1720777356,092:     74  59  64
1720777356,092:    181  59  64
1720777356,092:    205  59  64
1720777356,092:    130  59  64
1720777356,092:     91  59  64
1720777356,092:    193  59  64
1720777356,092:    355  59  64
1720777356,092:    386  59  64
1720777356,092:    201  59  64
1720777356,092:    -92  59  64
1720777356,092:   -347  59  64
1720777356,092:   -573  59  64
1720777356,092:   -885  59  64
1720777356,092:  -1301  59  64
1720777356,124:  -1645  59  64
1720777356,124:  -1714  59  64
1720777356,124:  -1482  59  64
1720777356,124:  -1074  59  64
1720777356,124:   -544  59  64
1720777356,124:    242  59  64
1720777356,124:   1437  59  64
1720777356,124:   2975  59  64
1720777356,124:   4587  59  64
1720777356,124:   6063  59  64
1720777356,124:   7430  59  64
1720777356,124:   8823  59  64
1720777356,124:  10224  59  64
1720777356,124:  11414  59  64
1720777356,124:  12189  59  64
1720777356,155:  12549  60  62
1720777356,155:  12598  60  62
1720777356,155:  12316  60  62
1720777356,155:  11528  60  62
1720777356,155:  10129  60  62
1720777356,155:   8293  60  62
1720777356,155:   6375  60  62
1720777356,155:   4626  60  62
1720777356,155:   3044  60  62
1720777356,155:   1531  60  62
1720777356,155:    119  60  62
1720777356,155:  -1001  60  62
1720777356,155:  -1684  60  62
1720777356,155:  -1972  60  62
1720777356,155:  -2036  60  62
1720777356,186:  -2013  60  62
1720777356,186:  -1955  60  62
1720777356,186:  -1919  60  62
1720777356,186:  -2001  60  62
1720777356,186:  -2248  60  62
1720777356,186:  -2568  60  62
1720777356,186:  -2793  60  62
1720777356,186:  -2859  60  62
1720777356,186:  -2869  60  62
1720777356,186:  -2943  60  62
1720777356,186:  -3065  60  62
1720777356,186:  -3089  60  62
1720777356,186:  -2939  60  62
1720777356,186:  -2711  60  62
1720777356,186:  -2568  60  62
1720777356,186:  -2555  60  62
1720777356,186:  -2576  60  62
1720777356,186:  -2547  60  62
1720777356,186:  -2506  60  62
1720777356,186:  -2531  60  62
1720777356,186:  -2595  60  62
1720777356,186:  -2570  60  62
1720777356,186:  -2385  60  62
1720777356,217:  -2137  60  62
1720777356,217:  -1991  60  62
1720777356,217:  -2000  60  62
1720777356,217:  -2052  60  62
1720777356,217:  -2023  60  62
1720777356,217:  -1926  60  62
1720777356,217:  -1864  60  62
1720777356,249:  -1870  60  62
1720777356,249:  -1852  60  62
1720777356,249:  -1724  60  62
1720777356,249:  -1547  60  62
1720777356,249:  -1460  60  62
1720777356,249:  -1508  60  62
1720777356,249:  -1575  60  62
1720777356,249:  -1529  60  62
1720777356,281:  -1392  60  62
1720777356,281:  -1303  60  62
1720777356,281:  -1330  60  62
1720777356,281:  -1381  60  62
1720777356,281:  -1327  60  62
1720777356,281:  -1178  60  62
1720777356,281:  -1076  60  62
1720777356,281:  -1105  60  62
1720777356,281:  -1187  60  62
1720777356,281:  -1175  60  62
1720777356,281:  -1052  60  62
1720777356,281:   -947  60  62
1720777356,281:   -960  60  62
1720777356,281:  -1036  60  62
1720777356,281:  -1040  60  62
1720777356,281:   -940  60  62
1720777356,281:   -846  60  62
1720777356,281:   -863  60  62
1720777356,281:   -949  60  62
1720777356,281:   -966  60  62
1720777356,281:   -865  60  62
1720777356,281:   -752  60  62
1720777356,312:   -742  60  62
1720777356,312:   -814  60  62
1720777356,312:   -839  60  62
1720777356,312:   -753  60  62
1720777356,312:   -645  60  62
1720777356,312:   -633  60  62
1720777356,312:   -710  60  62
1720777356,312:   -749  60  62
1720777356,312:   -677  60  62
1720777356,312:   -569  60  62
1720777356,312:   -546  60  62
1720777356,312:   -610  60  62
1720777356,312:   -645  60  62
1720777356,312:   -574  60  62
1720777356,312:   -472  60  62
1720777356,344:   -460  60  62
1720777356,344:   -544  60  62
1720777356,344:   -596  60  62
1720777356,344:   -529  60  62
1720777356,344:   -414  60  62
1720777356,344:   -388  60  62
1720777356,344:   -468  60  62
1720777356,344:   -529  60  62
1720777356,344:   -462  60  62
1720777356,344:   -333  60  62
1720777356,344:   -288  60  62
1720777356,344:   -364  60  62
1720777356,344:   -433  60  62
1720777356,344:   -373  60  62
1720777356,344:   -234  60  62
1720777356,344:   -170  60  62
1720777356,344:   -234  60  62
1720777356,344:   -307  60  62
1720777356,344:   -260  60  62
1720777356,344:   -128  60  62
1720777356,344:    -63  60  62
1720777356,344:   -130  60  62
1720777356,344:   -219  60  62
1720777356,374:   -190  60  62
1720777356,374:    -64  60  62
1720777356,374:      7  60  62
1720777356,374:    -55  60  62
1720777356,374:   -150  60  62
1720777356,374:   -130  60  62
1720777356,374:      5  60  62
1720777356,374:    110  60  62
1720777356,374:     86  60  62
1720777356,374:     10  60  62
1720777356,374:     30  60  62
1720777356,374:    169  60  62
1720777356,374:    298  60  62
1720777356,374:    304  60  62
1720777356,374:    232  60  62
1720777356,405:    224  60  62
1720777356,405:    324  60  62
1720777356,405:    428  60  62
1720777356,405:    427  60  62
1720777356,405:    348  60  62
1720777356,405:    325  60  62
1720777356,405:    415  60  62
1720777356,405:    527  60  62
1720777356,405:    546  60  62
1720777356,405:    484  60  62
1720777356,405:    463  60  62
1720777356,405:    544  60  62
1720777356,405:    642  60  62
1720777356,436:    639  60  62
1720777356,436:    537  60  62
1720777356,436:    470  60  62
1720777356,436:    523  60  62
1720777356,436:    618  60  62
1720777356,436:    626  60  62
1720777356,436:    532  60  62
1720777356,436:    463  60  62
1720777356,436:    513  60  62
1720777356,436:    614  60  62
1720777356,436:    627  60  62
1720777356,436:    525  60  62
1720777356,436:    435  60  62
1720777356,436:    467  60  62
1720777356,436:    567  60  62
1720777356,436:    588  60  62
1720777356,436:    486  60  62
1720777356,436:    379  60  62
1720777356,436:    390  60  62
1720777356,436:    479  60  62
1720777356,436:    508  60  62
1720777356,467:    424  60  62
1720777356,467:    332  60  62
1720777356,467:    352  60  62
1720777356,467:    452  60  62
1720777356,467:    494  60  62
1720777356,467:    423  60  62
1720777356,467:    339  60  62
1720777356,467:    365  60  62
1720777356,467:    472  60  62
1720777356,467:    515  60  62
1720777356,467:    428  60  62
1720777356,467:    313  60  62
1720777356,467:    314  60  62
1720777356,467:    426  60  62
1720777356,467:    505  60  62
1720777356,498:    456  60  62
1720777356,498:    355  60  62
1720777356,498:    346  60  62
1720777356,498:    445  60  62
1720777356,498:    522  60  62
1720777356,498:    478  60  62
1720777356,498:    372  60  62
1720777356,498:    342  60  62
1720777356,529:    413  60  62
1720777356,529:    468  60  62
1720777356,529:    405  60  62
1720777356,529:    282  60  62
1720777356,529:    243  60  62
1720777356,529:    325  60  62
1720777356,529:    406  60  62
1720777356,529:    368  60  62
1720777356,529:    248  60  62
1720777356,529:    196  60  62
1720777356,529:    274  60  62
1720777356,529:    378  60  62
1720777356,529:    374  60  62
1720777356,529:    271  60  62
1720777356,529:    205  60  62
1720777356,529:    254  60  62
1720777356,529:    334  60  62
1720777356,529:    319  60  62
1720777356,529:    212  60  62
1720777356,529:    145  60  62
1720777356,529:    206  60  62
1720777356,529:    314  60  62
1720777356,560:    328  60  62
1720777356,560:    227  60  62
1720777356,560:    142  60  62
1720777356,560:    181  60  62
1720777356,560:    288  60  62
1720777356,560:    319  60  62
1720777356,560:    233  60  62
1720777356,560:    145  60  62
1720777356,560:    173  60  62
1720777356,560:    276  60  62
1720777356,560:    315  60  62
1720777356,560:    237  60  62
1720777356,560:    146  60  62
1720777356,560:    165  60  62
1720777356,560:    261  60  62
1720777356,592:    296  60  62
1720777356,592:    209  60  62
1720777356,592:    104  60  62
1720777356,592:    112  60  62
1720777356,592:    217  60  62
1720777356,592:    283  60  62
1720777356,592:    230  60  62
1720777356,592:    140  60  62
1720777356,592:    138  60  62
1720777356,592:    220  60  62
1720777356,592:    261  60  62
1720777356,592:    189  60  62
1720777356,592:     86  60  62
1720777356,592:     81  60  62
1720777356,592:    173  60  62
1720777356,624:    235  60  62
1720777356,624:    185  60  62
1720777356,624:     94  60  62
1720777356,624:     93  60  62
1720777356,624:    194  60  62
1720777356,624:    272  60  62
1720777356,624:    235  60  62
1720777356,624:    140  60  62
1720777356,624:    122  60  62
1720777356,624:    207  60  62
1720777356,624:    282  60  62
1720777356,624:    246  60  62
1720777356,624:    144  60  62
1720777356,624:    110  60  62
1720777356,624:    184  60  62
1720777356,654:    260  60  62
1720777356,654:    228  60  62
1720777356,654:    120  60  62
1720777356,654:     72  60  62
1720777356,654:    145  60  62
1720777356,654:    241  60  62
1720777356,654:    239  60  62
1720777356,654:    148  60  62
1720777356,654:     96  60  62
1720777356,654:    156  60  62
1720777356,654:    247  60  62
1720777356,654:    245  60  62
1720777356,654:    150  60  62
1720777356,654:     95  60  62
1720777356,654:    160  60  62
1720777356,685:    271  60  62
1720777356,685:    291  60  62
1720777356,685:    204  60  62
1720777356,685:    134  60  62
1720777356,685:    178  60  62
1720777356,685:    274  60  62
1720777356,685:    285  60  62
1720777356,685:    184  60  62
1720777356,685:     93  60  62
1720777356,685:    125  60  62
1720777356,685:    234  60  62
1720777356,685:    278  60  62
1720777356,685:    206  60  62
1720777356,685:    124  60  62
1720777356,685:    150  60  62
1720777356,685:    254  60  62
1720777356,685:    303  60  62
1720777356,685:    233  60  62
1720777356,685:    136  60  62
1720777356,685:    136  60  62
1720777356,685:    222  60  62
1720777356,685:    270  60  62
1720777356,685:    209  60  62
1720777356,716:    118  60  62
1720777356,716:    115  60  62
1720777356,716:    198  60  62
1720777356,716:    250  60  62
1720777356,716:    195  60  62
1720777356,716:    102  60  62
1720777356,716:    100  60  62
1720777356,716:    194  60  62
1720777356,716:    263  60  62
1720777356,716:    214  60  62
1720777356,716:    108  60  62
1720777356,716:     84  60  62
1720777356,716:    174  60  62
1720777356,716:    259  60  62
1720777356,716:    229  60  62
1720777356,747:    122  60  62
1720777356,747:     80  60  62
1720777356,747:    160  60  62
1720777356,747:    261  60  62
1720777356,747:    256  60  62
1720777356,747:    156  60  62
1720777356,747:     94  60  62
1720777356,747:    147  60  62
1720777356,747:    237  60  62
1720777356,747:    234  60  62
1720777356,747:    132  60  62
1720777356,747:     59  60  62
1720777356,747:    106  60  62
1720777356,747:    206  60  62
1720777356,747:    225  60  62
1720777356,778:    138  60  62
1720777356,778:     63  60  62
1720777356,778:    102  60  62
1720777356,778:    200  60  62
1720777356,778:    223  60  62
1720777356,778:    132  60  62
1720777356,778:     45  60  62
1720777356,778:     74  60  62
1720777356,778:    174  60  62
1720777356,778:    212  60  62
1720777356,778:    140  60  62
1720777356,778:     62  60  62
1720777356,778:     91  60  62
1720777356,778:    189  60  62
1720777356,778:    222  60  62
1720777356,810:    142  60  62
1720777356,810:     54  60  62
1720777356,810:     80  60  62
1720777356,810:    189  60  62
1720777356,810:    240  60  62
1720777356,810:    165  60  62
1720777356,810:     64  60  62
1720777356,810:     70  60  62
1720777356,810:    175  60  62
1720777356,810:    241  60  62
1720777356,810:    180  60  62
1720777356,810:     71  60  62
1720777356,810:     51  60  62
1720777356,810:    140  60  62
1720777356,810:    220  60  62
1720777356,842:    193  60  62
1720777356,842:    105  60  62
1720777356,842:     79  60  62
1720777356,842:    148  60  62
1720777356,842:    218  60  62
1720777356,842:    199  60  62
1720777356,842:    122  60  62
1720777356,842:     97  60  62
1720777356,842:    157  60  62
1720777356,842:    217  60  62
1720777356,842:    195  60  62
1720777356,842:    123  60  62
1720777356,842:    108  60  62
1720777356,842:    180  60  62
1720777356,842:    249  60  62
1720777356,874:    227  60  62
1720777356,874:    145  60  62
1720777356,874:    121  60  62
1720777356,874:    198  60  62
1720777356,874:    285  60  62
1720777356,874:    274  60  62
1720777356,874:    181  60  62
1720777356,874:    126  60  62
1720777356,874:    174  60  62
1720777356,874:    252  60  62
1720777356,874:    247  60  62
1720777356,874:    158  60  62
1720777356,874:     98  60  62
1720777356,874:    142  60  62
1720777356,874:    230  60  62
1720777356,906:    247  60  62
1720777356,906:    179  60  62
1720777356,906:    128  60  62
1720777356,906:    173  60  62
1720777356,906:    259  60  62
1720777356,906:    273  60  62
1720777356,906:    195  60  62
1720777356,906:    132  60  62
1720777356,906:    172  60  62
1720777356,906:    262  60  62
1720777356,906:    282  60  62
1720777356,906:    201  60  62
1720777356,906:    125  60  62
1720777356,906:    150  60  62
1720777356,906:    232  60  62
1720777356,906:    244  60  62
1720777356,906:    150  60  62
1720777356,906:     59  60  62
1720777356,906:     86  60  62
1720777356,906:    194  60  62
1720777356,906:    244  60  62
1720777356,906:    173  60  62
1720777356,938:     80  60  62
1720777356,938:     94  60  62
1720777356,938:    197  60  62
1720777356,938:    250  60  62
1720777356,938:    177  60  62
1720777356,938:     67  60  62
1720777356,938:     57  60  62
1720777356,938:    150  60  62
1720777356,938:    212  60  62
1720777356,938:    153  60  62
1720777356,938:     48  60  62
1720777356,938:     34  60  62
1720777356,938:    127  60  62
1720777356,938:    199  60  62
1720777356,938:    150  60  62
1720777356,970:     40  60  62
1720777356,970:     10  60  62
1720777356,970:     95  60  62
1720777356,970:    179  60  62
1720777356,970:    154  60  62
1720777356,970:     57  60  62
1720777356,970:     23  60  62
1720777356,970:     98  60  62
1720777356,970:    180  60  62
1720777356,970:    158  60  62
1720777356,970:     55  60  62
1720777356,970:      4  60  62
1720777356,970:     67  60  62
1720777356,970:    156  60  62
1720777356,970:    150  60  62
1720777357,001:     57  60  62
1720777357,001:      1  60  62
1720777357,001:     60  60  62
1720777357,001:    159  60  62
1720777357,001:    178  60  62
1720777357,001:    107  60  62
1720777357,001:     61  60  62
1720777357,001:    120  60  62
1720777357,001:    218  60  62
1720777357,001:    234  60  62
1720777357,001:    154  60  62
1720777357,001:     87  60  62
1720777357,001:    125  60  62
1720777357,001:    210  60  62
1720777357,001:    222  60  62
1720777357,033:    134  60  62
1720777357,033:     56  60  62
1720777357,033:     86  60  62
1720777357,033:    179  60  62
1720777357,033:    209  60  62
1720777357,033:    137  60  62
1720777357,033:     65  60  62
1720777357,033:     94  60  62
1720777357,033:    187  60  62
1720777357,033:    216  60  62
1720777357,033:    135  60  62
1720777357,033:     41  60  62
1720777357,033:     54  60  62
1720777357,033:    151  60  62
1720777357,033:    199  60  62
1720777357,064:    129  60  62
1720777357,064:     24  60  62
1720777357,064:      9  60  62
1720777357,064:     85  60  62
1720777357,064:    134  60  62
1720777357,064:     83  60  62
1720777357,064:      0  60  62
1720777357,064:      9  60  62
1720777357,064:    119  60  62
1720777357,064:    214  60  62
1720777357,064:    209  60  62
1720777357,064:    144  60  62
1720777357,064:    100  60  62
1720777357,064:     59  60  62
1720777357,064:    -99  60  62
1720777357,095:   -438  60  62
1720777357,095:   -869  60  62
1720777357,095:  -1229  60  62
1720777357,095:  -1441  60  62
1720777357,095:  -1550  60  62
1720777357,095:  -1592  60  62
1720777357,095:  -1482  60  62
1720777357,095:  -1071  60  62
1720777357,095:   -301  60  62
1720777357,095:    747  60  62
1720777357,095:   1961  60  62
1720777357,095:   3298  60  62
1720777357,095:   4773  60  62
1720777357,095:   6345  60  62
1720777357,095:   7886  60  62
1720777357,127:   9263  62  61
1720777357,127:  10437  62  61
1720777357,127:  11427  62  61
1720777357,127:  12203  62  61
1720777357,127:  12628  62  61
1720777357,127:  12545  62  61
1720777357,127:  11900  62  61
1720777357,127:  10770  62  61
1720777357,127:   9287  62  61
1720777357,127:   7561  62  61
1720777357,127:   5710  62  61
1720777357,127:   3896  62  61
1720777357,127:   2283  62  61
1720777357,127:    941  62  61
1720777357,127:   -172  62  61
1720777357,158:  -1094  62  61
1720777357,158:  -1759  62  61
1720777357,158:  -2048  62  61
1720777357,158:  -1978  62  61
1720777357,158:  -1780  62  61
1720777357,158:  -1734  62  61
1720777357,158:  -1939  62  61
1720777357,158:  -2248  62  61
1720777357,158:  -2466  62  61
1720777357,158:  -2567  62  61
1720777357,158:  -2672  62  61
1720777357,158:  -2855  62  61
1720777357,158:  -3035  62  61
1720777357,158:  -3077  62  61
1720777357,158:  -2979  62  61
1720777357,158:  -2858  62  61
1720777357,158:  -2803  62  61
1720777357,158:  -2765  62  61
1720777357,158:  -2655  62  61
1720777357,158:  -2503  62  61
1720777357,158:  -2446  62  61
1720777357,158:  -2553  62  61
1720777357,158:  -2713  62  61
1720777357,190:  -2738  62  61
1720777357,190:  -2579  62  61
1720777357,190:  -2369  62  61
1720777357,190:  -2248  62  61
1720777357,190:  -2210  62  61
1720777357,190:  -2146  62  61
1720777357,190:  -2026  62  61
1720777357,190:  -1942  62  61
1720777357,190:  -1980  62  61
1720777357,190:  -2078  62  61
1720777357,190:  -2081  62  61
1720777357,190:  -1936  62  61
1720777357,190:  -1752  62  61
1720777357,190:  -1667  62  61
1720777357,190:  -1683  62  61
1720777357,222:  -1679  62  61
1720777357,222:  -1583  62  61
1720777357,222:  -1472  62  61
1720777357,222:  -1455  62  61
1720777357,222:  -1522  62  61
1720777357,222:  -1547  62  61
1720777357,222:  -1453  62  61
1720777357,222:  -1313  62  61
1720777357,222:  -1252  62  61
1720777357,222:  -1282  62  61
1720777357,222:  -1294  62  61
1720777357,222:  -1210  62  61
1720777357,222:  -1094  62  61
1720777357,222:  -1062  62  61
1720777357,222:  -1127  62  61
1720777357,254:  -1169  62  61
1720777357,254:  -1093  62  61
1720777357,254:   -958  62  61
1720777357,254:   -897  62  61
1720777357,254:   -947  62  61
1720777357,254:  -1002  62  61
1720777357,254:   -953  62  61
1720777357,254:   -834  62  61
1720777357,254:   -773  62  61
1720777357,254:   -824  62  61
1720777357,254:   -892  62  61
1720777357,254:   -860  62  61
1720777357,254:   -747  62  61
1720777357,254:   -677  62  61
1720777357,254:   -717  62  61
1720777357,285:   -789  62  61
1720777357,285:   -776  62  61
1720777357,285:   -680  62  61
1720777357,285:   -618  62  61
1720777357,285:   -666  62  61
1720777357,285:   -753  62  61
1720777357,285:   -754  62  61
1720777357,285:   -658  62  61
1720777357,285:   -580  62  61
1720777357,285:   -605  62  61
1720777357,285:   -678  62  61
1720777357,285:   -676  62  61
1720777357,285:   -580  62  61
1720777357,285:   -501  62  61
1720777357,285:   -531  62  61
1720777357,348:   -620  62  61
1720777357,348:   -637  62  61
1720777357,348:   -547  62  61
1720777357,348:   -455  62  61
1720777357,348:   -470  62  61
1720777357,348:   -556  62  61
1720777357,348:   -582  62  61
1720777357,348:   -498  62  61
1720777357,348:   -400  62  61
1720777357,348:   -401  62  61
1720777357,348:   -480  62  61
1720777357,348:   -510  62  61
1720777357,348:   -430  62  61
1720777357,348:   -329  62  61
1720777357,348:   -321  62  61
1720777357,348:   -396  62  61
1720777357,348:   -430  62  61
1720777357,348:   -353  62  61
1720777357,348:   -245  62  61
1720777357,348:   -229  62  61
1720777357,348:   -306  62  61
1720777357,348:   -347  62  61
1720777357,380:   -261  62  61
1720777357,380:   -122  62  61
1720777357,380:    -70  62  61
1720777357,380:   -135  62  61
1720777357,380:   -196  62  61
1720777357,380:   -138  62  61
1720777357,380:     -3  62  61
1720777357,380:     70  62  61
1720777357,380:     28  62  61
1720777357,380:    -30  62  61
1720777357,380:     17  62  61
1720777357,380:    150  62  61
1720777357,380:    247  62  61
1720777357,380:    243  62  61
1720777357,380:    218  62  61
1720777357,380:    281  62  61
1720777357,380:    410  62  61
1720777357,380:    484  62  61
1720777357,380:    440  62  61
1720777357,380:    366  62  61
1720777357,380:    383  62  61
1720777357,380:    483  62  61
1720777357,380:    540  62  61
1720777357,411:    480  62  61
1720777357,411:    380  62  61
1720777357,411:    371  62  61
1720777357,411:    459  62  61
1720777357,411:    521  62  61
1720777357,411:    470  62  61
1720777357,411:    370  62  61
1720777357,411:    353  62  61
1720777357,411:    436  62  61
1720777357,411:    505  62  61
1720777357,411:    463  62  61
1720777357,411:    361  62  61
1720777357,411:    326  62  61
1720777357,411:    387  62  61
1720777357,411:    441  62  61
1720777357,411:    391  62  61
1720777357,411:    281  62  61
1720777357,411:    239  62  61
1720777357,411:    305  62  61
1720777357,411:    377  62  61
1720777357,442:    348  62  61
1720777357,442:    246  62  61
1720777357,442:    201  62  61
1720777357,442:    264  62  61
1720777357,442:    341  62  61
1720777357,442:    312  62  61
1720777357,442:    192  62  61
1720777357,442:    117  62  61
1720777357,442:    167  62  61
1720777357,442:    263  62  61
1720777357,442:    277  62  61
1720777357,442:    190  62  61
1720777357,442:    116  62  61
1720777357,442:    147  62  61
1720777357,442:    232  62  61
1720777357,473:    251  62  61
1720777357,473:    170  62  61
1720777357,473:     87  62  61
1720777357,473:     99  62  61
1720777357,473:    170  62  61
1720777357,473:    189  62  61
1720777357,473:    118  62  61
1720777357,473:     41  62  61
1720777357,473:     54  62  61
1720777357,473:    129  62  61
1720777357,473:    158  62  61
1720777357,473:     96  62  61
1720777357,473:     23  62  61
1720777357,473:     35  62  61
1720777357,473:    112  62  61
1720777357,504:    145  62  61
1720777357,504:     84  62  61
1720777357,504:      4  62  61
1720777357,504:      3  62  61
1720777357,504:     69  62  61
1720777357,504:     95  62  61
1720777357,504:     28  62  61
1720777357,504:    -58  62  61
1720777357,504:    -53  62  61
1720777357,504:     34  62  61
1720777357,504:     88  62  61
1720777357,504:     34  62  61
1720777357,504:    -63  62  61
1720777357,504:    -86  62  61
1720777357,504:    -19  62  61
1720777357,535:     31  62  61
1720777357,535:    -17  62  61
1720777357,535:   -113  62  61
1720777357,535:   -136  62  61
1720777357,535:    -61  62  61
1720777357,535:      8  62  61
1720777357,535:    -24  62  61
1720777357,535:   -116  62  61
1720777357,535:   -142  62  61
1720777357,535:    -66  62  61
1720777357,535:      6  62  61
1720777357,535:    -32  62  61
1720777357,535:   -146  62  61
1720777357,535:   -198  62  61
1720777357,535:   -132  62  61
1720777357,535:    -47  62  61
1720777357,535:    -63  62  61
1720777357,535:   -167  62  61
1720777357,535:   -227  62  61
1720777357,535:   -170  62  61
1720777357,535:    -81  62  61
1720777357,535:    -84  62  61
1720777357,565:   -179  62  61
1720777357,565:   -241  62  61
1720777357,565:   -188  62  61
1720777357,565:    -94  62  61
1720777357,565:    -84  62  61
1720777357,565:   -169  62  61
1720777357,565:   -234  62  61
1720777357,565:   -194  62  61
1720777357,565:   -111  62  61
1720777357,565:   -105  62  61
1720777357,565:   -192  62  61
1720777357,565:   -261  62  61
1720777357,565:   -218  62  61
1720777357,565:   -122  62  61
1720777357,565:    -99  62  61
1720777357,597:   -184  62  61
1720777357,597:   -266  62  61
1720777357,597:   -242  62  61
1720777357,597:   -152  62  61
1720777357,597:   -124  62  61
1720777357,597:   -206  62  61
1720777357,597:   -301  62  61
1720777357,597:   -293  62  61
1720777357,597:   -201  62  61
1720777357,597:   -152  62  61
1720777357,597:   -210  62  61
1720777357,597:   -293  62  61
1720777357,597:   -287  62  61
1720777357,597:   -201  62  61
1720777357,597:   -151  62  61
1720777357,628:   -207  62  61
1720777357,628:   -297  62  61
1720777357,628:   -310  62  61
1720777357,628:   -238  62  61
1720777357,628:   -185  62  61
1720777357,628:   -222  62  61
1720777357,628:   -294  62  61
1720777357,628:   -303  62  61
1720777357,628:   -244  62  61
1720777357,628:   -212  62  61
1720777357,628:   -266  62  61
1720777357,628:   -344  62  61
1720777357,628:   -341  62  61
1720777357,628:   -259  62  61
1720777357,628:   -205  62  61
1720777357,659:   -252  62  61
1720777357,659:   -337  62  61
1720777357,659:   -341  62  61
1720777357,659:   -250  62  61
1720777357,659:   -178  62  61
1720777357,659:   -219  62  61
1720777357,659:   -323  62  61
1720777357,659:   -359  62  61
1720777357,659:   -284  62  61
1720777357,659:   -202  62  61
1720777357,659:   -224  62  61
1720777357,659:   -325  62  61
1720777357,659:   -374  62  61
1720777357,659:   -311  62  61
1720777357,659:   -227  62  61
1720777357,659:   -239  62  61
1720777357,659:   -341  62  61
1720777357,659:   -407  62  61
1720777357,659:   -357  62  61
1720777357,659:   -264  62  61
1720777357,659:   -254  62  61
1720777357,659:   -343  62  61
1720777357,659:   -417  62  61
1720777357,691:   -387  62  61
1720777357,691:   -305  62  61
1720777357,691:   -293  62  61
1720777357,691:   -378  62  61
1720777357,691:   -455  62  61
1720777357,691:   -426  62  61
1720777357,691:   -332  62  61
1720777357,722:   -292  62  61
1720777357,722:   -351  62  61
1720777357,722:   -421  62  61
1720777357,722:   -401  62  61
1720777357,722:   -315  62  61
1720777357,722:   -276  62  61
1720777357,722:   -337  62  61
1720777357,722:   -418  62  61
1720777357,722:   -414  62  61
1720777357,722:   -337  62  61
1720777357,722:   -297  62  61
1720777357,722:   -354  62  61
1720777357,722:   -439  62  61
1720777357,722:   -447  62  61
1720777357,722:   -381  62  61
1720777357,752:   -349  62  61
1720777357,752:   -411  62  61
1720777357,752:   -502  62  61
1720777357,752:   -507  62  61
1720777357,752:   -422  62  61
1720777357,752:   -359  62  61
1720777357,752:   -399  62  61
1720777357,752:   -486  62  61
1720777357,752:   -502  62  61
1720777357,752:   -426  62  61
1720777357,752:   -360  62  61
1720777357,752:   -393  62  61
1720777357,752:   -485  62  61
1720777357,752:   -518  62  61
1720777357,752:   -460  62  61
1720777357,784:   -404  62  61
1720777357,784:   -436  62  61
1720777357,784:   -516  62  61
1720777357,784:   -531  62  61
1720777357,784:   -452  62  61
1720777357,784:   -380  62  61
1720777357,784:   -414  62  61
1720777357,784:   -517  62  61
1720777357,784:   -556  62  61
1720777357,784:   -481  62  61
1720777357,784:   -391  62  61
1720777357,784:   -406  62  61
1720777357,784:   -511  62  61
1720777357,784:   -577  62  61
1720777357,784:   -535  62  61
1720777357,784:   -465  62  61
1720777357,784:   -480  62  61
1720777357,784:   -579  62  61
1720777357,784:   -640  62  61
1720777357,784:   -587  62  61
1720777357,784:   -496  62  61
1720777357,784:   -492  62  61
1720777357,784:   -582  62  61
1720777357,816:   -648  62  61
1720777357,816:   -600  62  61
1720777357,816:   -501  62  61
1720777357,816:   -480  62  61
1720777357,816:   -568  62  61
1720777357,816:   -656  62  61
1720777357,816:   -639  62  61
1720777357,816:   -555  62  61
1720777357,816:   -529  62  61
1720777357,816:   -605  62  61
1720777357,816:   -686  62  61
1720777357,816:   -663  62  61
1720777357,816:   -567  62  61
1720777357,816:   -524  62  61
1720777357,816:   -593  62  61
1720777357,847:   -684  62  61
1720777357,847:   -674  62  61
1720777357,847:   -571  62  61
1720777357,847:   -506  62  61
1720777357,847:   -561  62  61
1720777357,847:   -665  62  61
1720777357,847:   -687  62  61
1720777357,879:   -612  62  61
1720777357,879:   -557  62  61
1720777357,879:   -613  62  61
1720777357,879:   -720  62  61
1720777357,879:   -745  62  61
1720777357,879:   -660  62  61
1720777357,879:   -581  62  61
1720777357,879:   -616  62  61
1720777357,879:   -723  62  61
1720777357,879:   -763  62  61
1720777357,879:   -693  62  61
1720777357,879:   -617  62  61
1720777357,879:   -650  62  61
1720777357,879:   -759  62  61
1720777357,879:   -802  62  61
1720777357,911:   -718  62  61
1720777357,911:   -611  62  61
1720777357,911:   -608  62  61
1720777357,911:   -693  62  61
1720777357,911:   -731  62  61
1720777357,911:   -653  62  61
1720777357,911:   -552  62  61
1720777357,911:   -560  62  61
1720777357,911:   -673  62  61
1720777357,911:   -752  62  61
1720777357,911:   -708  62  61
1720777357,911:   -614  62  61
1720777357,911:   -606  62  61
1720777357,911:   -699  62  61
1720777357,911:   -771  62  61
1720777357,911:   -729  62  61
1720777357,911:   -639  62  61
1720777357,911:   -631  62  61
1720777357,911:   -728  62  61
1720777357,911:   -811  62  61
1720777357,911:   -779  62  61
1720777357,911:   -688  62  61
1720777357,911:   -670  62  61
1720777357,943:   -762  62  61
1720777357,943:   -850  62  61
1720777357,943:   -826  62  61
1720777357,943:   -727  62  61
1720777357,943:   -685  62  61
1720777357,943:   -749  62  61
1720777357,943:   -819  62  61
1720777357,943:   -781  62  61
1720777357,943:   -664  62  61
1720777357,943:   -599  62  61
1720777357,943:   -650  62  61
1720777357,943:   -732  62  61
1720777357,943:   -726  62  61
1720777357,943:   -646  62  61
1720777357,943:   -611  62  61
1720777357,973:   -687  62  61
1720777357,973:   -795  62  61
1720777357,973:   -811  62  61
1720777357,973:   -735  62  61
1720777357,973:   -683  62  61
1720777357,973:   -732  62  61
1720777357,973:   -817  62  61
1720777357,973:   -818  62  61
1720777357,973:   -729  62  61
1720777357,973:   -666  62  61
1720777357,973:   -718  62  61
1720777357,973:   -827  62  61
1720777357,973:   -856  62  61
1720777357,973:   -774  62  61
1720777357,973:   -693  62  61
1720777358,005:   -726  62  61
1720777358,005:   -838  62  61
1720777358,005:   -898  62  61
1720777358,005:   -848  62  61
1720777358,005:   -776  62  61
1720777358,005:   -792  62  61
1720777358,005:   -883  62  61
1720777358,005:   -929  62  61
1720777358,005:   -868  62  61
1720777358,005:   -777  62  61
1720777358,005:   -763  62  61
1720777358,005:   -817  62  61
1720777358,005:   -818  62  61
1720777358,005:   -710  62  61
1720777358,005:   -599  62  61
1720777358,005:   -647  62  61
1720777358,005:   -886  62  61
1720777358,005:  -1185  62  61
1720777358,005:  -1428  62  61
1720777358,005:  -1653  62  61
1720777358,005:  -1968  62  61
1720777358,005:  -2346  62  61
1720777358,036:  -2599  62  61
1720777358,036:  -2554  62  61
1720777358,036:  -2222  62  61
1720777358,036:  -1724  62  61
1720777358,036:  -1085  62  61
1720777358,036:   -168  62  61
1720777358,036:   1133  62  61
1720777358,036:   2701  62  61
1720777358,067:   4275  62  61
1720777358,067:   5701  62  61
1720777358,067:   7049  62  61
1720777358,067:   8432  62  61
1720777358,067:   9777  62  61
1720777358,067:  10850  62  61
1720777358,067:  11482  62  61
1720777358,067:  11695  62  61
1720777358,067:  11570  62  61
1720777358,067:  11052  62  61
1720777358,067:   9989  62  61
1720777358,067:   8373  62  61
1720777358,067:   6460  62  61
1720777358,067:   4601  62  61
1720777358,067:   2956  62  61
1720777358,098:   1451  64  61
1720777358,098:     -3  64  61
1720777358,098:  -1308  64  61
1720777358,098:  -2239  64  61
1720777358,098:  -2697  64  61
1720777358,098:  -2809  64  61
1720777358,098:  -2801  64  61
1720777358,098:  -2804  64  61
1720777358,098:  -2831  64  61
1720777358,098:  -2890  64  61
1720777358,098:  -3040  64  61
1720777358,098:  -3304  64  61
1720777358,098:  -3587  64  61
1720777358,098:  -3757  64  61
1720777358,098:  -3790  64  61
1720777358,098:  -3801  64  61
1720777358,098:  -3883  64  61
1720777358,098:  -3978  64  61
1720777358,098:  -3941  64  61
1720777358,098:  -3739  64  61
1720777358,098:  -3513  64  61
1720777358,098:  -3426  64  61
1720777358,130:  -3483  64  61
1720777358,130:  -3547  64  61
1720777358,130:  -3528  64  61
1720777358,130:  -3473  64  61
1720777358,130:  -3462  64  61
1720777358,130:  -3474  64  61
1720777358,130:  -3392  64  61
1720777358,130:  -3177  64  61
1720777358,130:  -2948  64  61
1720777358,130:  -2854  64  61
1720777358,130:  -2905  64  61
1720777358,130:  -2962  64  61
1720777358,130:  -2919  64  61
1720777358,130:  -2816  64  61
1720777358,130:  -2765  64  61
1720777358,160:  -2780  64  61
1720777358,160:  -2757  64  61
1720777358,160:  -2622  64  61
1720777358,160:  -2447  64  61
1720777358,160:  -2368  64  61
1720777358,160:  -2410  64  61
1720777358,160:  -2456  64  61
1720777358,160:  -2392  64  61
1720777358,160:  -2256  64  61
1720777358,160:  -2173  64  61
1720777358,160:  -2190  64  61
1720777358,160:  -2215  64  61
1720777358,160:  -2147  64  61
1720777358,160:  -2017  64  61
1720777358,160:  -1950  64  61
1720777358,192:  -1994  64  61
1720777358,192:  -2054  64  61
1720777358,192:  -2013  64  61
1720777358,192:  -1887  64  61
1720777358,192:  -1801  64  61
1720777358,192:  -1822  64  61
1720777358,192:  -1870  64  61
1720777358,192:  -1828  64  61
1720777358,192:  -1703  64  61
1720777358,192:  -1617  64  61
1720777358,192:  -1644  64  61
1720777358,192:  -1714  64  61
1720777358,192:  -1699  64  61
1720777358,192:  -1589  64  61
1720777358,192:  -1500  64  61
1720777358,223:  -1520  64  61
1720777358,223:  -1593  64  61
1720777358,223:  -1593  64  61
1720777358,223:  -1495  64  61
1720777358,223:  -1408  64  61
1720777358,223:  -1431  64  61
1720777358,223:  -1522  64  61
1720777358,223:  -1549  64  61
1720777358,223:  -1465  64  61
1720777358,223:  -1366  64  61
1720777358,223:  -1368  64  61
1720777358,223:  -1453  64  61
1720777358,223:  -1491  64  61
1720777358,223:  -1415  64  61
1720777358,223:  -1307  64  61
1720777358,255:  -1290  64  61
1720777358,255:  -1368  64  61
1720777358,255:  -1418  64  61
1720777358,255:  -1354  64  61
1720777358,255:  -1239  64  61
1720777358,255:  -1199  64  61
1720777358,255:  -1258  64  61
1720777358,255:  -1305  64  61
1720777358,255:  -1252  64  61
1720777358,255:  -1153  64  61
1720777358,255:  -1130  64  61
1720777358,255:  -1204  64  61
1720777358,255:  -1260  64  61
1720777358,255:  -1199  64  61
1720777358,255:  -1078  64  61
1720777358,287:  -1029  64  61
1720777358,287:  -1089  64  61
1720777358,287:  -1147  64  61
1720777358,287:  -1092  64  61
1720777358,287:   -967  64  61
1720777358,287:   -910  64  61
1720777358,287:   -974  64  61
1720777358,287:  -1050  64  61
1720777358,287:  -1014  64  61
1720777358,287:   -888  64  61
1720777358,287:   -809  64  61
1720777358,287:   -847  64  61
1720777358,287:   -913  64  61
1720777358,287:   -883  64  61
1720777358,287:   -761  64  61
1720777358,318:   -673  64  61
1720777358,318:   -693  64  61
1720777358,318:   -749  64  61
1720777358,318:   -714  64  61
1720777358,318:   -586  64  61
1720777358,318:   -482  64  61
1720777358,318:   -483  64  61
1720777358,318:   -529  64  61
1720777358,318:   -496  64  61
1720777358,318:   -372  64  61
1720777358,318:   -273  64  61
1720777358,318:   -288  64  61
1720777358,318:   -357  64  61
1720777358,318:   -347  64  61
1720777358,318:   -233  64  61
1720777358,318:   -129  64  61
1720777358,318:   -138  64  61
1720777358,318:   -215  64  61
1720777358,318:   -227  64  61
1720777358,318:   -130  64  61
1720777358,318:    -31  64  61
1720777358,318:    -40  64  61
1720777358,318:   -130  64  61
1720777358,349:   -167  64  61
1720777358,349:    -93  64  61
1720777358,349:     -1  64  61
1720777358,349:    -10  64  61
1720777358,349:   -106  64  61
1720777358,349:   -164  64  61
1720777358,349:   -113  64  61
1720777358,349:    -35  64  61
1720777358,349:    -49  64  61
1720777358,349:   -152  64  61
1720777358,349:   -218  64  61
1720777358,349:   -169  64  61
1720777358,349:    -79  64  61
1720777358,349:    -73  64  61
1720777358,349:   -165  64  61
1720777358,381:   -234  64  61
1720777358,381:   -189  64  61
1720777358,381:    -93  64  61
1720777358,381:    -80  64  61
1720777358,381:   -174  64  61
1720777358,381:   -256  64  61
1720777358,381:   -219  64  61
1720777358,381:   -112  64  61
1720777358,381:    -74  64  61
1720777358,381:   -150  64  61
1720777358,381:   -232  64  61
1720777358,381:   -203  64  61
1720777358,381:    -97  64  61
1720777358,381:    -51  64  61
1720777358,381:   -125  64  61
1720777358,412:   -218  64  61
1720777358,412:   -204  64  61
1720777358,412:    -99  64  61
1720777358,412:    -40  64  61
1720777358,412:   -105  64  61
1720777358,412:   -211  64  61
1720777358,412:   -226  64  61
1720777358,412:   -143  64  61
1720777358,412:    -82  64  61
1720777358,412:   -129  64  61
1720777358,412:   -223  64  61
1720777358,412:   -236  64  61
1720777358,412:   -150  64  61
1720777358,412:    -75  64  61
1720777358,412:   -100  64  61
1720777358,443:   -180  64  61
1720777358,443:   -196  64  61
1720777358,443:   -123  64  61
1720777358,443:    -60  64  61
1720777358,443:    -97  64  61
1720777358,443:   -191  64  61
1720777358,443:   -219  64  61
1720777358,443:   -147  64  61
1720777358,443:    -70  64  61
1720777358,443:    -88  64  61
1720777358,443:   -172  64  61
1720777358,443:   -203  64  61
1720777358,474:   -138  64  61
1720777358,474:    -69  64  61
1720777358,474:    -96  64  61
1720777358,474:   -194  64  61
1720777358,474:   -235  64  61
1720777358,474:   -164  64  61
1720777358,474:    -73  64  61
1720777358,474:    -79  64  61
1720777358,474:   -169  64  61
1720777358,474:   -216  64  61
1720777358,474:   -146  64  61
1720777358,474:    -43  64  61
1720777358,474:    -32  64  61
1720777358,474:   -123  64  61
1720777358,474:   -190  64  61
1720777358,505:   -143  64  61
1720777358,505:    -46  64  61
1720777358,505:    -26  64  61
1720777358,505:   -105  64  61
1720777358,505:   -172  64  61
1720777358,505:   -128  64  61
1720777358,505:    -26  64  61
1720777358,505:      6  64  61
1720777358,505:    -72  64  61
1720777358,505:   -152  64  61
1720777358,505:   -125  64  61
1720777358,505:    -23  64  61
1720777358,505:     25  64  61
1720777358,505:    -35  64  61
1720777358,505:   -118  64  61
1720777358,505:   -113  64  61
1720777358,505:    -36  64  61
1720777358,505:     -1  64  61
1720777358,505:    -65  64  61
1720777358,505:   -145  64  61
1720777358,505:   -132  64  61
1720777358,505:    -39  64  61
1720777358,537:     14  64  61
1720777358,537:    -36  64  61
1720777358,537:   -111  64  61
1720777358,537:    -95  64  61
1720777358,537:      2  64  61
1720777358,537:     57  64  61
1720777358,537:     -8  64  61
1720777358,537:   -114  64  61
1720777358,537:   -127  64  61
1720777358,537:    -37  64  61
1720777358,537:     29  64  61
1720777358,537:    -20  64  61
1720777358,537:   -122  64  61
1720777358,537:   -138  64  61
1720777358,537:    -46  64  61
1720777358,569:     36  64  61
1720777358,569:      5  64  61
1720777358,569:    -88  64  61
1720777358,569:   -107  64  61
1720777358,569:    -14  64  61
1720777358,569:     81  64  61
1720777358,569:     64  64  61
1720777358,569:    -28  64  61
1720777358,569:    -63  64  61
1720777358,569:      8  64  61
1720777358,569:     84  64  61
1720777358,569:     54  64  61
1720777358,569:    -51  64  61
1720777358,569:    -95  64  61
1720777358,569:    -20  64  61
1720777358,601:     73  64  61
1720777358,601:     61  64  61
1720777358,601:    -38  64  61
1720777358,601:    -86  64  61
1720777358,601:    -12  64  61
1720777358,601:     88  64  61
1720777358,601:     84  64  61
1720777358,601:    -21  64  61
1720777358,601:    -88  64  61
1720777358,601:    -25  64  61
1720777358,601:     90  64  61
1720777358,601:    115  64  61
1720777358,601:     30  64  61
1720777358,601:    -41  64  61
1720777358,601:      5  64  61
1720777358,601:    110  64  61
1720777358,601:    140  64  61
1720777358,601:     60  64  61
1720777358,601:    -22  64  61
1720777358,601:      4  64  61
1720777358,601:     98  64  61
1720777358,601:    135  64  61
1720777358,601:     72  64  61
1720777358,633:      0  64  61
1720777358,633:     22  64  61
1720777358,633:    107  64  61
1720777358,633:    134  64  61
1720777358,633:     62  64  61
1720777358,633:    -18  64  61
1720777358,633:      3  64  61
1720777358,665:     99  64  61
1720777358,665:    147  64  61
1720777358,665:     87  64  61
1720777358,665:      7  64  61
1720777358,665:     21  64  61
1720777358,665:    114  64  61
1720777358,665:    160  64  61
1720777358,665:     92  64  61
1720777358,665:     -9  64  61
1720777358,665:    -13  64  61
1720777358,665:     84  64  61
1720777358,665:    157  64  61
1720777358,665:    114  64  61
1720777358,665:     20  64  61
1720777358,665:     11  64  61
1720777358,665:    111  64  61
1720777358,665:    198  64  61
1720777358,665:    163  64  61
1720777358,665:     54  64  61
1720777358,665:     12  64  61
1720777358,665:     89  64  61
1720777358,665:    179  64  61
1720777358,665:    158  64  61
1720777358,697:     49  64  61
1720777358,697:     -8  64  61
1720777358,697:     61  64  61
1720777358,697:    167  64  61
1720777358,697:    179  64  61
1720777358,697:     88  64  61
1720777358,697:     23  64  61
1720777358,697:     75  64  61
1720777358,697:    178  64  61
1720777358,697:    204  64  61
1720777358,697:    129  64  61
1720777358,697:     59  64  61
1720777358,697:     84  64  61
1720777358,697:    159  64  61
1720777358,697:    170  64  61
1720777358,728:     94  64  61
1720777358,728:     29  64  61
1720777358,728:     67  64  61
1720777358,728:    162  64  61
1720777358,728:    194  64  61
1720777358,728:    130  64  61
1720777358,728:     63  64  61
1720777358,728:     92  64  61
1720777358,728:    180  64  61
1720777358,728:    205  64  61
1720777358,728:    127  64  61
1720777358,728:     41  64  61
1720777358,728:     58  64  61
1720777358,728:    151  64  61
1720777358,728:    193  64  61
1720777358,759:    124  64  61
1720777358,759:     34  64  61
1720777358,759:     43  64  61
1720777358,759:    139  64  61
1720777358,759:    193  64  61
1720777358,759:    131  64  61
1720777358,759:     35  64  61
1720777358,759:     36  64  61
1720777358,759:    135  64  61
1720777358,759:    201  64  61
1720777358,759:    151  64  61
1720777358,759:     57  64  61
1720777358,759:     54  64  61
1720777358,759:    154  64  61
1720777358,759:    232  64  61
1720777358,759:    189  64  61
1720777358,759:     85  64  61
1720777358,759:     63  64  61
1720777358,759:    155  64  61
1720777358,759:    244  64  61
1720777358,759:    223  64  61
1720777358,759:    132  64  61
1720777358,790:    104  64  61
1720777358,790:    180  64  61
1720777358,790:    255  64  61
1720777358,790:    224  64  61
1720777358,790:    120  64  61
1720777358,790:     78  64  61
1720777358,790:    154  64  61
1720777358,790:    251  64  61
1720777358,821:    248  64  61
1720777358,821:    157  64  61
1720777358,821:    104  64  61
1720777358,821:    160  64  61
1720777358,821:    248  64  61
1720777358,821:    249  64  61
1720777358,821:    157  64  61
1720777358,821:     89  64  61
1720777358,821:    124  64  61
1720777358,821:    202  64  61
1720777358,821:    208  64  61
1720777358,821:    129  64  61
1720777358,821:     76  64  61
1720777358,821:    130  64  61
1720777358,821:    229  64  61
1720777358,853:    248  64  61
1720777358,853:    163  64  61
1720777358,853:     88  64  61
1720777358,853:    128  64  61
1720777358,853:    234  64  61
1720777358,853:    271  64  61
1720777358,853:    189  64  61
1720777358,853:     92  64  61
1720777358,853:     98  64  61
1720777358,853:    182  64  61
1720777358,853:    219  64  61
1720777358,853:    148  64  61
1720777358,853:     57  64  61
1720777358,853:     67  64  61
1720777358,853:    164  64  61
1720777358,882:    227  64  61
1720777358,882:    182  64  61
1720777358,882:    103  64  61
1720777358,882:    107  64  61
1720777358,882:    196  64  61
1720777358,882:    253  64  61
1720777358,882:    205  64  61
1720777358,882:    119  64  61
1720777358,882:    114  64  61
1720777358,882:    201  64  61
1720777358,882:    271  64  61
1720777358,882:    244  64  61
1720777358,882:    169  64  61
1720777358,882:    160  64  61
1720777358,882:    233  64  61
1720777358,882:    290  64  61
1720777358,882:    253  64  61
1720777358,882:    175  64  61
1720777358,882:    175  64  61
1720777358,882:    275  64  61
1720777358,882:    368  64  61
1720777358,882:    354  64  61
1720777358,912:    271  64  61
1720777358,912:    245  64  61
1720777358,912:    319  64  61
1720777358,912:    396  64  61
1720777358,912:    363  64  61
1720777358,912:    247  64  61
1720777358,912:    182  64  61
1720777358,912:    236  64  61
1720777358,912:    322  64  61
1720777358,912:    314  64  61
1720777358,912:    215  64  61
1720777358,912:    151  64  61
1720777358,912:    201  64  61
1720777358,912:    292  64  61
1720777358,912:    296  64  61
1720777358,944:    199  64  61
1720777358,944:    123  64  61
1720777358,944:    159  64  61
1720777358,944:    245  64  61
1720777358,944:    261  64  61
1720777358,944:    186  64  61
1720777358,944:    129  64  61
1720777358,944:    174  64  61
1720777358,974:    262  64  61
1720777358,974:    268  64  61
1720777358,974:    169  64  61
1720777358,974:     87  64  61
1720777358,974:    123  64  61
1720777358,974:    223  64  61
1720777358,974:    249  64  61
1720777358,974:    164  64  61
1720777358,974:     86  64  61
1720777358,974:    135  64  61
1720777358,974:    273  64  61
1720777358,974:    359  64  61
1720777358,974:    329  64  61
1720777358,974:    270  64  61
1720777358,974:    273  64  61
1720777359,006:    280  64  61
1720777359,006:    139  64  61
1720777359,006:   -204  64  61
1720777359,006:   -628  64  61
1720777359,006:   -969  64  61
1720777359,006:  -1189  64  61
1720777359,006:  -1355  64  61
1720777359,006:  -1476  64  61
1720777359,006:  -1423  64  61
1720777359,006:  -1040  64  61
1720777359,006:   -308  64  61
1720777359,006:    670  64  61
1720777359,006:   1815  64  61
1720777359,006:   3143  64  61
1720777359,006:   4669  64  61
1720777359,006:   6294  64  61
1720777359,006:   7840  64  61
1720777359,006:   9205  64  61
1720777359,006:  10414  64  61
1720777359,006:  11512  64  61
1720777359,006:  12422  64  61
1720777359,006:  12955  64  61
1720777359,038:  12957  63  62
1720777359,038:  12418  63  62
1720777359,038:  11421  63  62
1720777359,038:  10034  63  62
1720777359,038:   8308  63  62
1720777359,038:   6373  63  62
1720777359,038:   4457  63  62
1720777359,038:   2773  63  62
1720777359,038:   1371  63  62
1720777359,038:    168  63  62
1720777359,038:   -877  63  62
1720777359,038:  -1652  63  62
1720777359,038:  -2001  63  62
1720777359,038:  -1946  63  62
1720777359,038:  -1745  63  62
1720777359,069:  -1691  63  62
1720777359,069:  -1869  63  62
1720777359,069:  -2135  63  62
1720777359,069:  -2324  63  62
1720777359,069:  -2437  63  62
1720777359,069:  -2581  63  62
1720777359,069:  -2790  63  62
1720777359,069:  -2964  63  62
1720777359,069:  -2993  63  62
1720777359,069:  -2910  63  62
1720777359,069:  -2829  63  62
1720777359,069:  -2800  63  62
1720777359,069:  -2748  63  62
1720777359,069:  -2599  63  62
1720777359,069:  -2418  63  62
1720777359,101:  -2352  63  62
1720777359,101:  -2453  63  62
1720777359,101:  -2598  63  62
1720777359,101:  -2619  63  62
1720777359,101:  -2490  63  62
1720777359,101:  -2325  63  62
1720777359,101:  -2220  63  62
1720777359,101:  -2143  63  62
1720777359,101:  -2021  63  62
1720777359,101:  -1872  63  62
1720777359,101:  -1803  63  62
1720777359,101:  -1854  63  62
1720777359,101:  -1929  63  62
1720777359,101:  -1894  63  62
1720777359,101:  -1748  63  62
1720777359,132:  -1614  63  62
1720777359,132:  -1585  63  62
1720777359,132:  -1606  63  62
1720777359,132:  -1558  63  62
1720777359,132:  -1428  63  62
1720777359,132:  -1327  63  62
1720777359,132:  -1342  63  62
1720777359,132:  -1412  63  62
1720777359,132:  -1404  63  62
1720777359,132:  -1283  63  62
1720777359,132:  -1157  63  62
1720777359,132:  -1133  63  62
1720777359,132:  -1183  63  62
1720777359,132:  -1180  63  62
1720777359,132:  -1074  63  62
1720777359,163:   -959  63  62
1720777359,163:   -942  63  62
1720777359,163:  -1004  63  62
1720777359,163:  -1022  63  62
1720777359,163:   -933  63  62
1720777359,163:   -819  63  62
1720777359,163:   -794  63  62
1720777359,163:   -857  63  62
1720777359,163:   -888  63  62
1720777359,163:   -813  63  62
1720777359,163:   -701  63  62
1720777359,163:   -667  63  62
1720777359,163:   -725  63  62
1720777359,163:   -768  63  62
1720777359,163:   -715  63  62
1720777359,193:   -619  63  62
1720777359,193:   -589  63  62
1720777359,193:   -643  63  62
1720777359,193:   -683  63  62
1720777359,193:   -628  63  62
1720777359,193:   -527  63  62
1720777359,193:   -490  63  62
1720777359,193:   -542  63  62
1720777359,193:   -592  63  62
1720777359,193:   -550  63  62
1720777359,193:   -455  63  62
1720777359,193:   -417  63  62
1720777359,193:   -471  63  62
1720777359,193:   -530  63  62
1720777359,193:   -498  63  62
1720777359,225:   -399  63  62
1720777359,225:   -341  63  62
1720777359,225:   -377  63  62
1720777359,225:   -433  63  62
1720777359,225:   -413  63  62
1720777359,225:   -330  63  62
1720777359,225:   -286  63  62
1720777359,225:   -333  63  62
1720777359,225:   -399  63  62
1720777359,225:   -381  63  62
1720777359,225:   -283  63  62
1720777359,225:   -214  63  62
1720777359,225:   -240  63  62
1720777359,225:   -298  63  62
1720777359,225:   -276  63  62
1720777359,225:   -171  63  62
1720777359,225:    -94  63  62
1720777359,225:   -124  63  62
1720777359,225:   -202  63  62
1720777359,225:   -204  63  62
1720777359,225:   -105  63  62
1720777359,225:    -16  63  62
1720777359,225:    -31  63  62
1720777359,256:   -108  63  62
1720777359,256:   -120  63  62
1720777359,256:    -27  63  62
1720777359,256:     76  63  62
1720777359,256:     87  63  62
1720777359,256:     28  63  62
1720777359,256:     19  63  62
1720777359,256:    111  63  62
1720777359,256:    220  63  62
1720777359,256:    241  63  62
1720777359,256:    189  63  62
1720777359,256:    177  63  62
1720777359,256:    262  63  62
1720777359,256:    366  63  62
1720777359,256:    384  63  62
1720777359,288:    325  63  62
1720777359,288:    307  63  62
1720777359,288:    396  63  62
1720777359,288:    522  63  62
1720777359,288:    568  63  62
1720777359,288:    521  63  62
1720777359,288:    485  63  62
1720777359,288:    541  63  62
1720777359,288:    636  63  62
1720777359,288:    663  63  62
1720777359,288:    602  63  62
1720777359,288:    551  63  62
1720777359,288:    593  63  62
1720777359,288:    682  63  62
1720777359,288:    708  63  62
1720777359,319:    642  63  62
1720777359,319:    579  63  62
1720777359,319:    612  63  62
1720777359,319:    703  63  62
1720777359,319:    735  63  62
1720777359,319:    662  63  62
1720777359,319:    572  63  62
1720777359,319:    577  63  62
1720777359,319:    661  63  62
1720777359,319:    708  63  62
1720777359,319:    652  63  62
1720777359,319:    563  63  62
1720777359,319:    553  63  62
1720777359,319:    624  63  62
1720777359,319:    672  63  62
1720777359,351:    626  63  62
1720777359,351:    541  63  62
1720777359,351:    529  63  62
1720777359,351:    601  63  62
1720777359,351:    656  63  62
1720777359,351:    618  63  62
1720777359,351:    535  63  62
1720777359,351:    520  63  62
1720777359,351:    590  63  62
1720777359,351:    646  63  62
1720777359,351:    605  63  62
1720777359,351:    510  63  62
1720777359,351:    478  63  62
1720777359,351:    539  63  62
1720777359,351:    607  63  62
1720777359,351:    590  63  62
1720777359,351:    520  63  62
1720777359,351:    503  63  62
1720777359,351:    573  63  62
1720777359,351:    644  63  62
1720777359,351:    629  63  62
1720777359,351:    553  63  62
1720777359,382:    525  63  62
1720777359,382:    588  63  62
1720777359,382:    660  63  62
1720777359,382:    643  63  62
1720777359,382:    555  63  62
1720777359,382:    508  63  62
1720777359,382:    557  63  62
1720777359,382:    628  63  62
1720777359,413:    618  63  62
1720777359,413:    531  63  62
1720777359,413:    477  63  62
1720777359,413:    523  63  62
1720777359,413:    603  63  62
1720777359,413:    610  63  62
1720777359,413:    531  63  62
1720777359,413:    471  63  62
1720777359,413:    501  63  62
1720777359,413:    568  63  62
1720777359,413:    563  63  62
1720777359,413:    471  63  62
1720777359,413:    395  63  62
1720777359,413:    423  63  62
1720777359,413:    508  63  62
1720777359,413:    534  63  62
1720777359,413:    467  63  62
1720777359,413:    400  63  62
1720777359,413:    426  63  62
1720777359,413:    509  63  62
1720777359,444:    530  63  62
1720777359,444:    448  63  62
1720777359,444:    356  63  62
1720777359,444:    362  63  62
1720777359,444:    447  63  62
1720777359,444:    493  63  62
1720777359,444:    437  63  62
1720777359,444:    353  63  62
1720777359,444:    351  63  62
1720777359,444:    431  63  62
1720777359,444:    485  63  62
1720777359,444:    444  63  62
1720777359,444:    364  63  62
1720777359,444:    349  63  62
1720777359,444:    407  63  62
1720777359,475:    445  63  62
1720777359,475:    400  63  62
1720777359,475:    327  63  62
1720777359,475:    325  63  62
1720777359,475:    396  63  62
1720777359,475:    441  63  62
1720777359,475:    389  63  62
1720777359,475:    300  63  62
1720777359,475:    292  63  62
1720777359,475:    382  63  62
1720777359,475:    463  63  62
1720777359,475:    439  63  62
1720777359,475:    351  63  62
1720777359,475:    321  63  62
1720777359,475:    391  63  62
1720777359,507:    469  63  62
1720777359,507:    451  63  62
1720777359,507:    361  63  62
1720777359,507:    316  63  62
1720777359,507:    372  63  62
1720777359,507:    445  63  62
1720777359,507:    432  63  62
1720777359,507:    344  63  62
1720777359,507:    299  63  62
1720777359,507:    358  63  62
1720777359,507:    444  63  62
1720777359,507:    442  63  62
1720777359,507:    351  63  62
1720777359,507:    288  63  62
1720777359,507:    336  63  62
1720777359,539:    432  63  62
1720777359,539:    457  63  62
1720777359,539:    387  63  62
1720777359,539:    325  63  62
1720777359,539:    359  63  62
1720777359,539:    442  63  62
1720777359,539:    460  63  62
1720777359,539:    385  63  62
1720777359,539:    313  63  62
1720777359,539:    339  63  62
1720777359,539:    430  63  62
1720777359,539:    467  63  62
1720777359,539:    404  63  62
1720777359,539:    328  63  62
1720777359,539:    341  63  62
1720777359,570:    425  63  62
1720777359,570:    463  63  62
1720777359,570:    400  63  62
1720777359,570:    312  63  62
1720777359,570:    314  63  62
1720777359,570:    401  63  62
1720777359,570:    458  63  62
1720777359,570:    412  63  62
1720777359,570:    331  63  62
1720777359,570:    329  63  62
1720777359,570:    410  63  62
1720777359,570:    460  63  62
1720777359,570:    400  63  62
1720777359,570:    298  63  62
1720777359,570:    282  63  62
1720777359,602:    369  63  62
1720777359,602:    442  63  62
1720777359,602:    402  63  62
1720777359,602:    299  63  62
1720777359,602:    272  63  62
1720777359,602:    361  63  62
1720777359,602:    458  63  62
1720777359,602:    446  63  62
1720777359,602:    352  63  62
1720777359,602:    309  63  62
1720777359,602:    377  63  62
1720777359,602:    468  63  62
1720777359,602:    468  63  62
1720777359,602:    389  63  62
1720777359,602:    345  63  62
1720777359,633:    399  63  62
1720777359,633:    473  63  62
1720777359,633:    458  63  62
1720777359,633:    361  63  62
1720777359,633:    302  63  62
1720777359,633:    351  63  62
1720777359,633:    437  63  62
1720777359,633:    440  63  62
1720777359,633:    348  63  62
1720777359,633:    273  63  62
1720777359,633:    303  63  62
1720777359,633:    387  63  62
1720777359,633:    408  63  62
1720777359,633:    337  63  62
1720777359,633:    272  63  62
1720777359,665:    304  63  62
1720777359,665:    390  63  62
1720777359,665:    419  63  62
1720777359,665:    357  63  62
1720777359,665:    295  63  62
1720777359,665:    326  63  62
1720777359,665:    413  63  62
1720777359,665:    438  63  62
1720777359,665:    363  63  62
1720777359,665:    285  63  62
1720777359,665:    312  63  62
1720777359,665:    419  63  62
1720777359,665:    477  63  62
1720777359,665:    426  63  62
1720777359,665:    351  63  62
1720777359,665:    372  63  62
1720777359,665:    480  63  62
1720777359,665:    541  63  62
1720777359,665:    471  63  62
1720777359,665:    343  63  62
1720777359,665:    297  63  62
1720777359,665:    355  63  62
1720777359,696:    400  63  62
1720777359,696:    333  63  62
1720777359,696:    213  63  62
1720777359,696:    177  63  62
1720777359,696:    265  63  62
1720777359,696:    367  63  62
1720777359,696:    367  63  62
1720777359,696:    290  63  62
1720777359,696:    264  63  62
1720777359,696:    342  63  62
1720777359,696:    435  63  62
1720777359,696:    425  63  62
1720777359,696:    319  63  62
1720777359,696:    228  63  62
1720777359,696:    219  63  62
1720777359,727:    232  63  62
1720777359,727:    176  63  62
1720777359,727:     63  63  62
1720777359,727:      9  63  62
1720777359,727:     79  63  62
1720777359,727:    200  63  62
1720777359,727:    253  63  62
1720777359,727:    229  63  62
1720777359,727:    242  63  62
1720777359,727:    373  63  62
1720777359,727:    554  63  62
1720777359,727:    642  63  62
1720777359,727:    592  63  62
1720777359,727:    508  63  62
1720777359,727:    501  63  62
1720777359,758:    538  63  62
1720777359,758:    490  63  62
1720777359,758:    298  63  62
1720777359,758:     58  63  62
1720777359,758:    -92  63  62
1720777359,758:   -126  63  62
1720777359,758:   -135  63  62
1720777359,758:   -192  63  62
1720777359,758:   -253  63  62
1720777359,758:   -234  63  62
1720777359,758:   -126  63  62
1720777359,758:     -8  63  62
1720777359,758:     57  63  62
1720777359,758:     84  63  62
1720777359,758:    120  63  62
1720777359,790:    150  63  62
1720777359,790:    119  63  62
1720777359,790:     18  63  62
1720777359,790:    -84  63  62
1720777359,790:   -124  63  62
1720777359,790:   -130  63  62
1720777359,790:   -182  63  62
1720777359,790:   -300  63  62
1720777359,790:   -401  63  62
1720777359,790:   -398  63  62
1720777359,790:   -309  63  62
1720777359,790:   -237  63  62
1720777359,790:   -241  63  62
1720777359,790:   -267  63  62
1720777359,790:   -222  63  62
1720777359,821:   -100  63  62
1720777359,821:      8  63  62
1720777359,821:     22  63  62
1720777359,821:    -33  63  62
1720777359,821:    -55  63  62
1720777359,821:      2  63  62
1720777359,821:     86  63  62
1720777359,821:    114  63  62
1720777359,821:     73  63  62
1720777359,821:     38  63  62
1720777359,821:     76  63  62
1720777359,821:    174  63  62
1720777359,821:    260  63  62
1720777359,821:    278  63  62
1720777359,821:    236  63  62
1720777359,853:    178  63  62
1720777359,853:    130  63  62
1720777359,853:     85  63  62
1720777359,853:     26  63  62
1720777359,853:    -40  63  62
1720777359,853:   -101  63  62
1720777359,853:   -155  63  62
1720777359,853:   -203  63  62
1720777359,853:   -233  63  62
1720777359,853:   -223  63  62
1720777359,853:   -178  63  62
1720777359,853:   -139  63  62
1720777359,853:   -135  63  62
1720777359,853:   -150  63  62
1720777359,853:   -134  63  62
1720777359,884:    -78  63  62
1720777359,884:    -24  63  62
1720777359,884:    -13  63  62
1720777359,884:    -28  63  62
1720777359,884:    -14  63  62
1720777359,884:     42  63  62
1720777359,884:     93  63  62
1720777359,884:     96  63  62
1720777359,884:     81  63  62
1720777359,884:    108  63  62
1720777359,884:    175  63  62
1720777359,884:    195  63  62
1720777359,884:    104  63  62
1720777359,884:    -48  63  62
1720777359,884:   -142  63  62
1720777359,884:   -128  63  62
1720777359,884:    -84  63  62
1720777359,884:   -110  63  62
1720777359,884:   -199  63  62
1720777359,884:   -241  63  62
1720777359,884:   -162  63  62
1720777359,884:    -20  63  62
1720777359,884:     59  63  62
1720777359,915:     26  63  62
1720777359,915:    -48  63  62
1720777359,915:    -69  63  62
1720777359,915:    -33  63  62
1720777359,915:     -9  63  62
1720777359,915:    -39  63  62
1720777359,915:    -87  63  62
1720777359,915:    -91  63  62
1720777359,915:    -47  63  62
1720777359,915:     -5  63  62
1720777359,915:     -7  63  62
1720777359,915:    -29  63  62
1720777359,915:    -21  63  62
1720777359,915:     24  63  62
1720777359,915:     65  63  62
1720777359,946:     71  63  62
1720777359,946:     59  63  62
1720777359,946:     67  63  62
1720777359,946:     79  63  62
1720777359,946:     20  63  62
1720777359,946:   -175  63  62
1720777359,946:   -492  63  62
1720777359,946:   -859  63  62
1720777359,946:  -1211  63  62
1720777359,946:  -1512  63  62
1720777359,946:  -1730  63  62
1720777359,946:  -1804  63  62
1720777359,946:  -1658  63  62
1720777359,946:  -1246  63  62
1720777359,946:   -561  63  62
1720777359,977:    402  63  62
1720777359,977:   1660  63  62
1720777359,977:   3183  63  62
1720777359,977:   4848  63  62
1720777359,977:   6479  63  62
1720777359,977:   7962  63  62
1720777359,977:   9307  63  62
1720777359,977:  10566  63  62
1720777359,977:  11706  63  62
1720777359,977:  12588  63  62
1720777359,977:  13057  63  62
1720777359,977:  13047  63  62
1720777359,977:  12567  63  62
1720777359,977:  11633  63  62
1720777359,977:  10253  63  62
1720777360,009:   8509  63  63
1720777360,009:   6601  63  63
1720777360,009:   4763  63  63
1720777360,009:   3116  63  63
1720777360,009:   1625  63  63
1720777360,009:    232  63  63
1720777360,009:   -996  63  63
1720777360,009:  -1879  63  63
1720777360,009:  -2291  63  63
1720777360,009:  -2314  63  63
1720777360,009:  -2200  63  63
1720777360,009:  -2181  63  63
1720777360,009:  -2318  63  63
1720777360,009:  -2520  63  63
1720777360,009:  -2681  63  63
1720777360,009:  -2768  63  63
1720777360,009:  -2826  63  63
1720777360,009:  -2893  63  63
1720777360,009:  -2971  63  63
1720777360,009:  -3041  63  63
1720777360,009:  -3088  63  63
1720777360,009:  -3097  63  63
1720777360,040:  -3048  63  63
1720777360,040:  -2945  63  63
1720777360,040:  -2828  63  63
1720777360,040:  -2759  63  63
1720777360,040:  -2779  63  63
1720777360,040:  -2864  63  63
1720777360,040:  -2937  63  63
1720777360,040:  -2921  63  63
1720777360,070:  -2796  63  63
1720777360,070:  -2600  63  63
1720777360,070:  -2390  63  63
1720777360,070:  -2205  63  63
1720777360,070:  -2063  63  63
1720777360,070:  -1971  63  63
1720777360,070:  -1936  63  63
1720777360,070:  -1948  63  63
1720777360,070:  -1970  63  63
1720777360,070:  -1957  63  63
1720777360,070:  -1891  63  63
1720777360,070:  -1800  63  63
1720777360,070:  -1732  63  63
1720777360,070:  -1707  63  63
1720777360,070:  -1705  63  63
1720777360,101:  -1686  63  63
1720777360,101:  -1638  63  63
1720777360,101:  -1576  63  63
1720777360,101:  -1528  63  63
1720777360,101:  -1492  63  63
1720777360,101:  -1449  63  63
1720777360,101:  -1381  63  63
1720777360,101:  -1286  63  63
1720777360,101:  -1183  63  63
1720777360,101:  -1093  63  63
1720777360,101:  -1035  63  63
1720777360,101:  -1007  63  63
1720777360,101:   -995  63  63
1720777360,101:   -978  63  63
1720777360,101:   -947  63  63
1720777360,132:   -910  63  63
1720777360,132:   -878  63  63
1720777360,132:   -854  63  63
1720777360,132:   -833  63  63
1720777360,132:   -808  63  63
1720777360,132:   -779  63  63
1720777360,132:   -745  63  63
1720777360,132:   -706  63  63
1720777360,132:   -668  63  63
1720777360,132:   -642  63  63
1720777360,132:   -625  63  63
1720777360,132:   -598  63  63
1720777360,132:   -551  63  63
1720777360,132:   -509  63  63
1720777360,132:   -516  63  63
1720777360,132:   -576  63  63
1720777360,132:   -639  63  63
1720777360,132:   -649  63  63
1720777360,132:   -611  63  63
1720777360,132:   -585  63  63
1720777360,132:   -623  63  63
1720777360,132:   -712  63  63
1720777360,164:   -801  63  63
1720777360,164:   -865  63  63
1720777360,164:   -921  63  63
1720777360,164:   -991  63  63
1720777360,164:  -1072  63  63
1720777360,164:  -1151  63  63
1720777360,164:  -1241  63  63
1720777360,164:  -1354  63  63
1720777360,164:  -1451  63  63
1720777360,164:  -1461  63  63
1720777360,164:  -1360  63  63
1720777360,164:  -1215  63  63
1720777360,164:  -1127  63  63
1720777360,164:  -1124  63  63
1720777360,164:  -1129  63  63
1720777360,195:  -1065  63  63
1720777360,195:   -948  63  63
1720777360,195:   -876  63  63
1720777360,195:   -912  63  63
1720777360,195:  -1012  63  63
1720777360,195:  -1077  63  63
1720777360,195:  -1050  63  63
1720777360,195:   -966  63  63
1720777360,227:   -888  63  63
1720777360,227:   -835  63  63
1720777360,227:   -770  63  63
1720777360,227:   -662  63  63
1720777360,227:   -532  63  63
1720777360,227:   -441  63  63
1720777360,227:   -421  63  63
1720777360,227:   -446  63  63
1720777360,227:   -457  63  63
1720777360,227:   -422  63  63
1720777360,227:   -359  63  63
1720777360,227:   -306  63  63
1720777360,227:   -271  63  63
1720777360,227:   -226  63  63
1720777360,227:   -137  63  63
1720777360,227:     -7  63  63
1720777360,227:    130  63  63
1720777360,227:    233  63  63
1720777360,227:    292  63  63
1720777360,227:    331  63  63
1720777360,227:    381  63  63
1720777360,227:    448  63  63
1720777360,258:    504  63  63
1720777360,258:    518  63  63
1720777360,258:    495  63  63
1720777360,258:    479  63  63
1720777360,258:    504  63  63
1720777360,258:    555  63  63
1720777360,258:    584  63  63
1720777360,258:    568  63  63
1720777360,258:    533  63  63
1720777360,258:    512  63  63
1720777360,258:    499  63  63
1720777360,258:    455  63  63
1720777360,258:    359  63  63
1720777360,258:    234  63  63
1720777360,258:    119  63  63
1720777360,290:     29  63  63
1720777360,290:    -46  63  63
1720777360,290:   -113  63  63
1720777360,290:   -163  63  63
1720777360,290:   -192  63  63
1720777360,290:   -220  63  63
1720777360,290:   -267  63  63
1720777360,290:   -325  63  63
1720777360,290:   -367  63  63
1720777360,290:   -370  63  63
1720777360,290:   -332  63  63
1720777360,290:   -275  63  63
1720777360,290:   -228  63  63
1720777360,290:   -205  63  63
1720777360,290:   -187  63  63
1720777360,321:   -136  63  63
1720777360,321:    -37  63  63
1720777360,321:     71  63  63
1720777360,321:    122  63  63
1720777360,321:     98  63  63
1720777360,321:     55  63  63
1720777360,321:     54  63  63
1720777360,321:     66  63  63
1720777360,321:    -15  63  63
1720777360,321:   -249  63  63
1720777360,321:   -566  63  63
1720777360,321:   -835  63  63
1720777360,321:  -1009  63  63
1720777360,321:  -1161  63  63
1720777360,321:  -1376  63  63
1720777360,321:  -1624  63  63
1720777360,321:  -1790  63  63
1720777360,321:  -1809  63  63
1720777360,321:  -1736  63  63
1720777360,321:  -1677  63  63
1720777360,321:  -1679  63  63
1720777360,321:  -1706  63  63
1720777360,321:  -1712  63  63
1720777360,352:  -1698  63  63
1720777360,352:  -1699  63  63
1720777360,352:  -1740  63  63
1720777360,352:  -1819  63  63
1720777360,352:  -1924  63  63
1720777360,352:  -2041  63  63
1720777360,352:  -2151  63  63
1720777360,352:  -2224  63  63
1720777360,352:  -2242  63  63
1720777360,352:  -2223  63  63
1720777360,352:  -2201  63  63
1720777360,352:  -2189  63  63
1720777360,352:  -2170  63  63
1720777360,352:  -2127  63  63
1720777360,352:  -2057  63  63
1720777360,383:  -1981  63  63
1720777360,383:  -1924  63  63
1720777360,383:  -1883  63  63
1720777360,383:  -1835  63  63
1720777360,383:  -1753  63  63
1720777360,383:  -1642  63  63
1720777360,383:  -1536  63  63
1720777360,383:  -1461  63  63
1720777360,383:  -1413  63  63
1720777360,383:  -1363  63  63
1720777360,383:  -1299  63  63
1720777360,383:  -1252  63  63
1720777360,383:  -1254  63  63
1720777360,383:  -1295  63  63
1720777360,383:  -1324  63  63
1720777360,415:  -1307  63  63
1720777360,415:  -1262  63  63
1720777360,415:  -1229  63  63
1720777360,415:  -1222  63  63
1720777360,415:  -1222  63  63
1720777360,415:  -1226  63  63
1720777360,415:  -1269  63  63
1720777360,415:  -1389  63  63
1720777360,415:  -1580  63  63
1720777360,415:  -1800  63  63
1720777360,415:  -2021  63  63
1720777360,415:  -2256  63  63
1720777360,415:  -2520  63  63
1720777360,415:  -2789  63  63
1720777360,415:  -3007  63  63
1720777360,446:  -3139  63  63
1720777360,446:  -3194  63  63
1720777360,446:  -3204  63  63
1720777360,446:  -3184  63  63
1720777360,446:  -3131  63  63
1720777360,446:  -3046  63  63
1720777360,446:  -2956  63  63
1720777360,446:  -2892  63  63
1720777360,446:  -2854  63  63
1720777360,446:  -2820  63  63
1720777360,446:  -2769  63  63
1720777360,446:  -2709  63  63
1720777360,478:  -2664  63  63
1720777360,478:  -2635  63  63
1720777360,478:  -2592  63  63
1720777360,478:  -2502  63  63
1720777360,478:  -2375  63  63
1720777360,478:  -2253  63  63
1720777360,478:  -2168  63  63
1720777360,478:  -2110  63  63
1720777360,478:  -2057  63  63
1720777360,478:  -2011  63  63
1720777360,478:  -1997  63  63
1720777360,478:  -2013  63  63
1720777360,478:  -2020  63  63
1720777360,478:  -1980  63  63
1720777360,478:  -1905  63  63
1720777360,509:  -1847  63  63
1720777360,509:  -1842  63  63
1720777360,509:  -1873  63  63
1720777360,509:  -1896  63  63
1720777360,509:  -1890  63  63
1720777360,509:  -1870  63  63
1720777360,509:  -1864  63  63
1720777360,509:  -1892  63  63
1720777360,509:  -1960  63  63
1720777360,509:  -2055  63  63
1720777360,509:  -2145  63  63
1720777360,509:  -2199  63  63
1720777360,509:  -2213  63  63
1720777360,509:  -2228  63  63
1720777360,509:  -2280  63  63
1720777360,540:  -2359  63  63
1720777360,540:  -2415  63  63
1720777360,540:  -2420  63  63
1720777360,540:  -2406  63  63
1720777360,540:  -2430  63  63
1720777360,540:  -2506  63  63
1720777360,540:  -2599  63  63
1720777360,540:  -2666  63  63
1720777360,540:  -2706  63  63
1720777360,540:  -2739  63  63
1720777360,540:  -2764  63  63
1720777360,540:  -2744  63  63
1720777360,540:  -2657  63  63
1720777360,540:  -2525  63  63
1720777360,540:  -2394  63  63
1720777360,540:  -2285  63  63
1720777360,540:  -2186  63  63
1720777360,540:  -2085  63  63
1720777360,540:  -1998  63  63
1720777360,540:  -1965  63  63
1720777360,540:  -2005  63  63
1720777360,540:  -2090  63  63
1720777360,571:  -2167  63  63
1720777360,571:  -2205  63  63
1720777360,571:  -2213  63  63
1720777360,571:  -2219  63  63
1720777360,571:  -2234  63  63
1720777360,571:  -2234  63  63
1720777360,571:  -2187  63  63
1720777360,571:  -2091  63  63
1720777360,602:  -1979  63  63
1720777360,602:  -1895  63  63
1720777360,602:  -1857  63  63
1720777360,602:  -1847  63  63
1720777360,602:  -1839  63  63
1720777360,602:  -1824  63  63
1720777360,602:  -1804  63  63
1720777360,602:  -1773  63  63
1720777360,602:  -1725  63  63
1720777360,602:  -1670  63  63
1720777360,602:  -1626  63  63
1720777360,602:  -1594  63  63
1720777360,602:  -1551  63  63
1720777360,602:  -1472  63  63
1720777360,602:  -1370  63  63
1720777360,602:  -1280  63  63
1720777360,602:  -1226  63  63
1720777360,602:  -1193  63  63
1720777360,602:  -1159  63  63
1720777360,602:  -1114  63  63
1720777360,602:  -1073  63  63
1720777360,602:  -1045  63  63
1720777360,634:  -1023  63  63
1720777360,634:   -997  63  63
1720777360,634:   -974  63  63
1720777360,634:   -968  63  63
1720777360,634:   -977  63  63
1720777360,634:   -979  63  63
1720777360,634:   -950  63  63
1720777360,634:   -887  63  63
1720777360,634:   -811  63  63
1720777360,634:   -745  63  63
1720777360,634:   -686  63  63
1720777360,634:   -610  63  63
1720777360,634:   -502  63  63
1720777360,634:   -384  63  63
1720777360,634:   -308  63  63
1720777360,665:   -305  63  63
1720777360,665:   -343  63  63
1720777360,665:   -359  63  63
1720777360,665:   -324  63  63
1720777360,665:   -275  63  63
1720777360,665:   -265  63  63
1720777360,665:   -292  63  63
1720777360,665:   -297  63  63
1720777360,665:   -241  63  63
1720777360,665:   -152  63  63
1720777360,665:    -89  63  63
1720777360,665:    -64  63  63
1720777360,665:    -32  63  63
1720777360,665:     38  63  63
1720777360,665:    110  63  63
1720777360,697:    121  63  63
1720777360,697:     70  63  63
1720777360,697:     15  63  63
1720777360,697:      4  63  63
1720777360,697:     13  63  63
1720777360,697:    -12  63  63
1720777360,697:    -65  63  63
1720777360,697:    -80  63  63
1720777360,697:     -6  63  63
1720777360,697:    123  63  63
1720777360,697:    229  63  63
1720777360,697:    287  63  63
1720777360,697:    339  63  63
1720777360,697:    430  63  63
1720777360,697:    540  63  63
1720777360,727:    609  63  63
1720777360,727:    618  63  63
1720777360,727:    615  63  63
1720777360,727:    648  63  63
1720777360,727:    700  63  63
1720777360,727:    716  63  63
1720777360,727:    674  63  63
1720777360,727:    618  63  63
1720777360,727:    598  63  63
1720777360,727:    612  63  63
1720777360,727:    617  63  63
1720777360,727:    594  63  63
1720777360,727:    574  63  63
1720777360,727:    588  63  63
1720777360,727:    621  63  63
1720777360,758:    633  63  63
1720777360,758:    622  63  63
1720777360,758:    628  63  63
1720777360,758:    674  63  63
1720777360,758:    727  63  63
1720777360,758:    741  63  63
1720777360,758:    725  63  63
1720777360,758:    738  63  63
1720777360,758:    802  63  63
1720777360,758:    852  63  63
1720777360,758:    812  63  63
1720777360,758:    700  63  63
1720777360,758:    620  63  63
1720777360,758:    643  63  63
1720777360,758:    718  63  63
1720777360,789:    739  63  63
1720777360,789:    676  63  63
1720777360,789:    615  63  63
1720777360,789:    645  63  63
1720777360,789:    746  63  63
1720777360,789:    819  63  63
1720777360,789:    801  63  63
1720777360,789:    741  63  63
1720777360,789:    718  63  63
1720777360,789:    743  63  63
1720777360,789:    750  63  63
1720777360,789:    695  63  63
1720777360,789:    618  63  63
1720777360,789:    591  63  63
1720777360,789:    624  63  63
1720777360,789:    647  63  63
1720777360,789:    594  63  63
1720777360,789:    490  63  63
1720777360,789:    416  63  63
1720777360,789:    418  63  63
1720777360,789:    461  63  63
1720777360,789:    475  63  63
1720777360,789:    448  63  63
1720777360,820:    431  63  63
1720777360,820:    470  63  63
1720777360,820:    548  63  63
1720777360,820:    607  63  63
1720777360,820:    620  63  63
1720777360,820:    608  63  63
1720777360,820:    600  63  63
1720777360,820:    588  63  63
1720777360,820:    552  63  63
1720777360,820:    501  63  63
1720777360,820:    477  63  63
1720777360,820:    505  63  63
1720777360,820:    563  63  63
1720777360,820:    609  63  63
1720777360,820:    632  63  63
1720777360,852:    639  63  63
1720777360,852:    611  63  63
1720777360,852:    497  63  63
1720777360,852:    261  63  63
1720777360,852:    -68  63  63
1720777360,852:   -412  63  63
1720777360,852:   -698  63  63
1720777360,852:   -893  63  63
1720777360,852:   -978  63  63
1720777360,852:   -909  63  63
1720777360,852:   -618  63  63
1720777360,852:    -57  63  63
1720777360,852:    786  63  63
1720777360,852:   1885  63  63
1720777360,852:   3191  63  63
1720777360,883:   4633  63  63
1720777360,883:   6125  63  63
1720777360,883:   7605  63  63
1720777360,883:   9045  63  63
1720777360,883:  10429  63  63
1720777360,883:  11695  63  63
1720777360,883:  12724  63  63
1720777360,883:  13386  63  63
1720777360,883:  13602  63  63
1720777360,883:  13340  63  63
1720777360,883:  12574  63  63
1720777360,883:  11272  63  63
1720777360,883:   9478  63  63
1720777360,883:   7384  63  63
1720777360,883:   5284  63  63
1720777360,914:   3418  67  64
1720777360,914:   1847  67  64
1720777360,914:    498  67  64
1720777360,914:   -665  67  64
1720777360,914:  -1538  67  64
1720777360,914:  -1965  67  64
1720777360,914:  -1929  67  64
1720777360,914:  -1643  67  64
1720777360,914:  -1415  67  64
1720777360,914:  -1423  67  64
1720777360,914:  -1619  67  64
1720777360,914:  -1846  67  64
1720777360,914:  -2012  67  64
1720777360,914:  -2156  67  64
1720777360,914:  -2344  67  64
1720777360,946:  -2555  67  64
1720777360,946:  -2696  67  64
1720777360,946:  -2710  67  64
1720777360,946:  -2635  67  64
1720777360,946:  -2544  67  64
1720777360,946:  -2460  67  64
1720777360,946:  -2349  67  64
1720777360,946:  -2211  67  64
1720777360,946:  -2116  67  64
1720777360,946:  -2140  67  64
1720777360,946:  -2259  67  64
1720777360,946:  -2349  67  64
1720777360,946:  -2311  67  64
1720777360,946:  -2163  67  64
1720777360,946:  -2002  67  64
1720777360,977:  -1886  67  64
1720777360,977:  -1792  67  64
1720777360,977:  -1687  67  64
1720777360,977:  -1595  67  64
1720777360,977:  -1577  67  64
1720777360,977:  -1627  67  64
1720777360,977:  -1659  67  64
1720777360,977:  -1596  67  64
1720777360,977:  -1458  67  64
1720777360,977:  -1341  67  64
1720777360,977:  -1303  67  64
1720777360,977:  -1303  67  64
1720777360,977:  -1269  67  64
1720777360,977:  -1197  67  64
1720777360,977:  -1147  67  64
1720777361,009:  -1156  67  64
1720777361,009:  -1175  67  64
1720777361,009:  -1127  67  64
1720777361,009:  -1009  67  64
1720777361,009:   -898  67  64
1720777361,009:   -858  67  64
1720777361,009:   -859  67  64
1720777361,009:   -831  67  64
1720777361,009:   -754  67  64
1720777361,009:   -689  67  64
1720777361,009:   -685  67  64
1720777361,009:   -711  67  64
1720777361,009:   -697  67  64
1720777361,009:   -631  67  64
1720777361,009:   -572  67  64
1720777361,009:   -567  67  64
1720777361,009:   -579  67  64
1720777361,009:   -539  67  64
1720777361,009:   -440  67  64
1720777361,009:   -353  67  64
1720777361,009:   -332  67  64
1720777361,009:   -340  67  64
1720777361,041:   -302  67  64
1720777361,041:   -205  67  64
1720777361,041:   -114  67  64
1720777361,041:    -94  67  64
1720777361,041:   -121  67  64
1720777361,041:   -127  67  64
1720777361,041:    -93  67  64
1720777361,041:    -76  67  64
1720777361,041:   -128  67  64
1720777361,041:   -213  67  64
1720777361,041:   -249  67  64
1720777361,041:   -208  67  64
1720777361,041:   -153  67  64
1720777361,041:   -162  67  64
1720777361,041:   -227  67  64
1720777361,072:   -269  67  64
1720777361,072:   -242  67  64
1720777361,072:   -195  67  64
1720777361,072:   -203  67  64
1720777361,072:   -275  67  64
1720777361,072:   -344  67  64
1720777361,072:   -362  67  64
1720777361,072:   -360  67  64
1720777361,104:   -396  67  64
1720777361,104:   -462  67  64
1720777361,104:   -487  67  64
1720777361,104:   -432  67  64
1720777361,104:   -350  67  64
1720777361,104:   -326  67  64
1720777361,104:   -366  67  64
1720777361,104:   -387  67  64
1720777361,104:   -324  67  64
1720777361,104:   -219  67  64
1720777361,104:   -172  67  64
1720777361,104:   -224  67  64
1720777361,104:   -312  67  64
1720777361,104:   -356  67  64
1720777361,104:   -352  67  64
1720777361,136:   -357  67  64
1720777361,136:   -404  67  64
1720777361,136:   -445  67  64
1720777361,136:   -422  67  64
1720777361,136:   -338  67  64
1720777361,136:   -265  67  64
1720777361,136:   -251  67  64
1720777361,136:   -258  67  64
1720777361,136:   -216  67  64
1720777361,136:   -114  67  64
1720777361,136:    -25  67  64
1720777361,136:    -24  67  64
1720777361,136:   -102  67  64
1720777361,136:   -186  67  64
1720777361,136:   -229  67  64
1720777361,136:   -250  67  64
1720777361,136:   -286  67  64
1720777361,136:   -327  67  64
1720777361,136:   -324  67  64
1720777361,136:   -265  67  64
1720777361,136:   -196  67  64
1720777361,136:   -153  67  64
1720777361,167:   -107  67  64
1720777361,167:    -11  67  64
1720777361,167:    117  67  64
1720777361,167:    187  67  64
1720777361,167:    141  67  64
1720777361,167:     35  67  64
1720777361,167:    -20  67  64
1720777361,167:     10  67  64
1720777361,167:     51  67  64
1720777361,167:     24  67  64
1720777361,167:    -48  67  64
1720777361,167:    -77  67  64
1720777361,167:    -30  67  64
1720777361,167:     23  67  64
1720777361,167:      1  67  64
1720777361,198:    -78  67  64
1720777361,198:   -126  67  64
1720777361,198:   -110  67  64
1720777361,198:    -94  67  64
1720777361,198:   -156  67  64
1720777361,198:   -274  67  64
1720777361,198:   -347  67  64
1720777361,198:   -320  67  64
1720777361,198:   -250  67  64
1720777361,198:   -235  67  64
1720777361,198:   -285  67  64
1720777361,198:   -322  67  64
1720777361,198:   -281  67  64
1720777361,198:   -195  67  64
1720777361,198:   -155  67  64
1720777361,229:   -188  67  64
1720777361,229:   -229  67  64
1720777361,229:   -209  67  64
1720777361,229:   -141  67  64
1720777361,229:   -105  67  64
1720777361,229:   -135  67  64
1720777361,229:   -179  67  64
1720777361,229:   -166  67  64
1720777361,229:    -99  67  64
1720777361,229:    -57  67  64
1720777361,229:    -90  67  64
1720777361,229:   -157  67  64
1720777361,229:   -182  67  64
1720777361,229:   -143  67  64
1720777361,229:    -95  67  64
1720777361,260:    -96  67  64
1720777361,260:   -133  67  64
1720777361,260:   -151  67  64
1720777361,260:   -120  67  64
1720777361,260:    -72  67  64
1720777361,260:    -53  67  64
1720777361,260:    -65  67  64
1720777361,260:    -76  67  64
1720777361,260:    -73  67  64
1720777361,260:    -73  67  64
1720777361,260:    -88  67  64
1720777361,260:   -101  67  64
1720777361,260:    -90  67  64
1720777361,260:    -69  67  64
1720777361,260:    -78  67  64
1720777361,260:   -132  67  64
1720777361,260:   -184  67  64
1720777361,260:   -179  67  64
1720777361,260:   -127  67  64
1720777361,260:    -95  67  64
1720777361,260:   -138  67  64
1720777361,260:   -222  67  64
1720777361,260:   -264  67  64
1720777361,292:   -228  67  64
1720777361,292:   -164  67  64
1720777361,292:   -145  67  64
1720777361,292:   -179  67  64
1720777361,292:   -209  67  64
1720777361,292:   -185  67  64
1720777361,292:   -131  67  64
1720777361,292:   -104  67  64
1720777361,292:   -115  67  64
1720777361,292:   -122  67  64
1720777361,292:    -92  67  64
1720777361,292:    -54  67  64
1720777361,292:    -52  67  64
1720777361,292:    -82  67  64
1720777361,292:    -89  67  64
1720777361,324:    -47  67  64
1720777361,324:      0  67  64
1720777361,324:     -4  67  64
1720777361,324:    -54  67  64
1720777361,324:    -82  67  64
1720777361,324:    -52  67  64
1720777361,324:      3  67  64
1720777361,324:     25  67  64
1720777361,324:     15  67  64
1720777361,324:     25  67  64
1720777361,324:     81  67  64
1720777361,324:    150  67  64
1720777361,324:    180  67  64
1720777361,324:    176  67  64
1720777361,324:    176  67  64
1720777361,356:    184  67  64
1720777361,356:    155  67  64
1720777361,356:     60  67  64
1720777361,356:    -62  67  64
1720777361,356:   -139  67  64
1720777361,356:   -151  67  64
1720777361,356:   -153  67  64
1720777361,356:   -199  67  64
1720777361,356:   -267  67  64
1720777361,356:   -285  67  64
1720777361,356:   -220  67  64
1720777361,356:   -120  67  64
1720777361,356:    -66  67  64
1720777361,356:    -78  67  64
1720777361,356:   -112  67  64
1720777361,388:   -116  67  64
1720777361,388:   -101  67  64
1720777361,388:   -114  67  64
1720777361,388:   -181  67  64
1720777361,388:   -260  67  64
1720777361,388:   -297  67  64
1720777361,388:   -278  67  64
1720777361,388:   -245  67  64
1720777361,388:   -241  67  64
1720777361,388:   -254  67  64
1720777361,388:   -242  67  64
1720777361,388:   -189  67  64
1720777361,388:   -133  67  64
1720777361,388:   -118  67  64
1720777361,388:   -140  67  64
1720777361,420:   -155  67  64
1720777361,420:   -134  67  64
1720777361,420:    -97  67  64
1720777361,420:    -79  67  64
1720777361,420:    -80  67  64
1720777361,420:    -72  67  64
1720777361,420:    -38  67  64
1720777361,420:     -6  67  64
1720777361,420:    -12  67  64
1720777361,420:    -51  67  64
1720777361,420:    -78  67  64
1720777361,420:    -68  67  64
1720777361,420:    -41  67  64
1720777361,420:    -37  67  64
1720777361,420:    -61  67  64
1720777361,450:    -78  67  64
1720777361,450:    -63  67  64
1720777361,450:    -32  67  64
1720777361,450:    -25  67  64
1720777361,450:    -54  67  64
1720777361,450:    -86  67  64
1720777361,450:    -85  67  64
1720777361,450:    -56  67  64
1720777361,450:    -36  67  64
1720777361,450:    -46  67  64
1720777361,450:    -68  67  64
1720777361,450:    -70  67  64
1720777361,450:    -46  67  64
1720777361,450:    -25  67  64
1720777361,450:    -28  67  64
1720777361,450:    -43  67  64
1720777361,450:    -43  67  64
1720777361,450:    -23  67  64
1720777361,450:     -5  67  64
1720777361,450:    -11  67  64
1720777361,482:    -38  67  64
1720777361,482:    -64  67  64
1720777361,482:    -83  67  64
1720777361,482:   -104  67  64
1720777361,482:   -133  67  64
1720777361,482:   -164  67  64
1720777361,482:   -185  67  64
1720777361,482:   -193  67  64
1720777361,482:   -192  67  64
1720777361,482:   -182  67  64
1720777361,482:   -161  67  64
1720777361,482:   -133  67  64
1720777361,482:   -115  67  64
1720777361,482:   -112  67  64
1720777361,482:   -117  67  64
1720777361,514:   -118  67  64
1720777361,514:   -117  67  64
1720777361,514:   -123  67  64
1720777361,514:   -133  67  64
1720777361,514:   -133  67  64
1720777361,514:   -117  67  64
1720777361,514:   -101  67  64
1720777361,514:   -104  67  64
1720777361,514:   -123  67  64
1720777361,514:   -129  67  64
1720777361,514:   -106  67  64
1720777361,514:    -68  67  64
1720777361,514:    -47  67  64
1720777361,514:    -46  67  64
1720777361,514:    -41  67  64
1720777361,549:    -15  67  64
1720777361,549:     16  67  64
1720777361,549:     25  67  64
1720777361,549:     12  67  64
1720777361,549:      6  67  64
1720777361,549:     23  67  64
1720777361,549:     42  67  64
1720777361,549:     40  67  64
1720777361,549:     26  67  64
1720777361,549:     42  67  64
1720777361,549:     98  67  64
1720777361,549:    150  67  64
1720777361,549:    148  67  64
1720777361,549:    100  67  64
1720777361,549:     66  67  64
1720777361,578:     81  67  64
1720777361,578:    108  67  64
1720777361,578:     93  67  64
1720777361,578:     40  67  64
1720777361,578:     14  67  64
1720777361,578:     55  67  64
1720777361,578:    126  67  64
1720777361,578:    151  67  64
1720777361,578:    112  67  64
1720777361,578:     67  67  64
1720777361,578:     70  67  64
1720777361,578:    100  67  64
1720777361,578:    100  67  64
1720777361,578:     55  67  64
1720777361,578:     13  67  64
1720777361,610:     14  67  64
1720777361,610:     29  67  64
1720777361,610:     -3  67  64
1720777361,610:    -85  67  64
1720777361,610:   -154  67  64
1720777361,610:   -157  67  64
1720777361,610:   -125  67  64
1720777361,610:   -134  67  64
1720777361,610:   -199  67  64
1720777361,610:   -246  67  64
1720777361,610:   -209  67  64
1720777361,610:   -117  67  64
1720777361,610:    -67  67  64
1720777361,610:   -101  67  64
1720777361,610:   -153  67  64
1720777361,610:   -131  67  64
1720777361,610:    -40  67  64
1720777361,610:     23  67  64
1720777361,610:     -1  67  64
1720777361,610:    -59  67  64
1720777361,610:    -53  67  64
1720777361,610:     21  67  64
1720777361,644:     67  67  64
1720777361,644:     12  67  64
1720777361,644:    -88  67  64
1720777361,644:   -116  67  64
1720777361,644:    -50  67  64
1720777361,644:     12  67  64
