timestamp: ADC HeartRate4sAverage HeartRate30sAverage
1720808106,983:   -754  77  76
1720808106,983:   -686  77  76
1720808106,983:   -623  77  76
1720808106,983:   -624  77  76
1720808106,983:   -659  77  76
1720808106,983:   -648  77  76
1720808106,983:   -568  77  76
1720808106,983:   -485  77  76
1720808106,983:   -476  77  76
1720808106,983:   -526  77  76
1720808106,983:   -550  77  76
1720808106,983:   -505  77  76
1720808106,983:   -437  77  76
1720808106,983:   -418  77  76
1720808106,983:   -448  77  76
1720808107,015:   -458  77  76
1720808107,015:   -405  77  76
1720808107,015:   -337  77  76
1720808107,015:   -327  77  76
1720808107,015:   -376  77  76
1720808107,015:   -408  77  76
1720808107,015:   -368  77  76
1720808107,015:   -293  77  76
1720808107,015:   -260  77  76
1720808107,015:   -285  77  76
1720808107,015:   -304  77  76
1720808107,015:   -263  77  76
1720808107,015:   -194  77  76
1720808107,015:   -177  77  76
1720808107,015:   -233  77  76
1720808107,015:   -294  77  76
1720808107,015:   -291  77  76
1720808107,015:   -240  77  76
1720808107,015:   -212  77  76
1720808107,015:   -239  77  76
1720808107,015:   -271  77  76
1720808107,015:   -247  77  76
1720808107,047:   -183  77  76
1720808107,047:   -150  77  76
1720808107,047:   -181  77  76
1720808107,047:   -228  77  76
1720808107,047:   -229  77  76
1720808107,047:   -186  77  76
1720808107,047:   -164  77  76
1720808107,047:   -195  77  76
1720808107,078:   -239  77  76
1720808107,078:   -238  77  76
1720808107,078:   -200  77  76
1720808107,078:   -190  77  76
1720808107,078:   -240  77  76
1720808107,078:   -301  77  76
1720808107,078:   -307  77  76
1720808107,078:   -262  77  76
1720808107,078:   -233  77  76
1720808107,078:   -256  77  76
1720808107,078:   -288  77  76
1720808107,078:   -262  77  76
1720808107,078:   -185  77  76
1720808107,078:   -131  77  76
1720808107,078:   -150  77  76
1720808107,108:   -195  77  76
1720808107,108:   -186  77  76
1720808107,108:   -111  77  76
1720808107,108:    -38  77  76
1720808107,108:    -27  77  76
1720808107,108:    -51  77  76
1720808107,108:    -34  77  76
1720808107,108:     41  77  76
1720808107,108:    109  77  76
1720808107,108:    101  77  76
1720808107,108:     42  77  76
1720808107,108:     17  77  76
1720808107,108:     65  77  76
1720808107,108:    131  77  76
1720808107,108:    144  77  76
1720808107,139:    106  77  76
1720808107,139:     90  77  76
1720808107,139:    137  77  76
1720808107,139:    200  77  76
1720808107,139:    199  77  76
1720808107,139:    132  77  76
1720808107,139:     78  77  76
1720808107,139:     92  77  76
1720808107,139:    145  77  76
1720808107,139:    162  77  76
1720808107,139:    127  77  76
1720808107,139:    100  77  76
1720808107,139:    130  77  76
1720808107,139:    187  77  76
1720808107,139:    196  77  76
1720808107,139:    141  77  76
1720808107,139:     85  77  76
1720808107,139:     91  77  76
1720808107,139:    139  77  76
1720808107,139:    158  77  76
1720808107,139:    120  77  76
1720808107,139:     79  77  76
1720808107,171:     96  77  76
1720808107,171:    152  77  76
1720808107,171:    172  77  76
1720808107,171:    122  77  76
1720808107,171:     59  77  76
1720808107,171:     58  77  76
1720808107,171:    115  77  76
1720808107,171:    158  77  76
1720808107,171:    136  77  76
1720808107,171:     89  77  76
1720808107,171:     88  77  76
1720808107,171:    141  77  76
1720808107,171:    177  77  76
1720808107,171:    141  77  76
1720808107,171:     71  77  76
1720808107,201:     51  77  76
1720808107,201:    100  77  76
1720808107,201:    152  77  76
1720808107,201:    144  77  76
1720808107,201:     98  77  76
1720808107,201:     90  77  76
1720808107,201:    143  77  76
1720808107,201:    194  77  76
1720808107,231:    172  77  76
1720808107,231:     99  77  76
1720808107,231:     60  77  76
1720808107,231:     96  77  76
1720808107,231:    154  77  76
1720808107,231:    159  77  76
1720808107,231:    113  77  76
1720808107,231:     92  77  76
1720808107,231:    135  77  76
1720808107,231:    193  77  76
1720808107,231:    192  77  76
1720808107,231:    133  77  76
1720808107,231:     87  77  76
1720808107,231:    106  77  76
1720808107,231:    152  77  76
1720808107,231:    156  77  76
1720808107,231:    112  77  76
1720808107,231:     84  77  76
1720808107,231:    114  77  76
1720808107,231:    164  77  76
1720808107,231:    162  77  76
1720808107,231:    102  77  76
1720808107,263:     55  77  76
1720808107,263:     77  77  76
1720808107,263:    137  77  76
1720808107,263:    157  77  76
1720808107,263:    115  77  76
1720808107,263:     74  77  76
1720808107,263:     94  77  76
1720808107,263:    153  77  76
1720808107,263:    169  77  76
1720808107,263:    111  77  76
1720808107,263:     40  77  76
1720808107,263:     33  77  76
1720808107,263:     82  77  76
1720808107,263:    111  77  76
1720808107,263:     78  77  76
1720808107,295:     30  77  76
1720808107,295:     38  77  76
1720808107,295:     97  77  76
1720808107,295:    131  77  76
1720808107,295:     90  77  76
1720808107,295:     22  77  76
1720808107,295:      7  77  76
1720808107,295:     58  77  76
1720808107,295:    106  77  76
1720808107,295:     92  77  76
1720808107,295:     43  77  76
1720808107,295:     32  77  76
1720808107,295:     76  77  76
1720808107,295:    113  77  76
1720808107,295:     84  77  76
1720808107,327:     16  77  76
1720808107,327:    -18  77  76
1720808107,327:     13  77  76
1720808107,327:     54  77  76
1720808107,327:     48  77  76
1720808107,327:      8  77  76
1720808107,327:     -1  77  76
1720808107,327:     47  77  76
1720808107,327:     95  77  76
1720808107,327:     76  77  76
1720808107,327:      2  77  76
1720808107,327:    -47  77  76
1720808107,327:    -25  77  76
1720808107,327:     22  77  76
1720808107,327:     24  77  76
1720808107,359:    -21  77  76
1720808107,359:    -44  77  76
1720808107,359:      1  77  76
1720808107,359:     69  77  76
1720808107,359:     81  77  76
1720808107,359:     27  77  76
1720808107,359:    -19  77  76
1720808107,359:      0  77  76
1720808107,359:     54  77  76
1720808107,359:     67  77  76
1720808107,359:     24  77  76
1720808107,359:    -11  77  76
1720808107,359:     20  77  76
1720808107,359:     81  77  76
1720808107,359:     92  77  76
1720808107,389:     31  77  76
1720808107,389:    -29  77  76
1720808107,389:    -22  77  76
1720808107,389:     30  77  76
1720808107,389:     48  77  76
1720808107,389:      1  77  76
1720808107,389:    -48  77  76
1720808107,389:    -29  77  76
1720808107,389:     38  77  76
1720808107,389:     67  77  76
1720808107,389:     18  77  76
1720808107,389:    -48  77  76
1720808107,389:    -52  77  76
1720808107,389:      5  77  76
1720808107,389:     49  77  76
1720808107,389:     29  77  76
1720808107,389:    -12  77  76
1720808107,389:     -5  77  76
1720808107,389:     50  77  76
1720808107,389:     83  77  76
1720808107,389:     49  77  76
1720808107,389:    -14  77  76
1720808107,389:    -30  77  76
1720808107,419:     11  77  76
1720808107,419:     45  77  76
1720808107,419:     25  77  76
1720808107,419:    -17  77  76
1720808107,419:    -14  77  76
1720808107,419:     40  77  76
1720808107,419:     77  77  76
1720808107,449:     43  77  76
1720808107,449:    -29  77  76
1720808107,449:    -55  77  76
1720808107,449:    -10  77  76
1720808107,449:     47  77  76
1720808107,449:     46  77  76
1720808107,449:      3  77  76
1720808107,449:    -13  77  76
1720808107,449:     32  77  76
1720808107,449:     83  77  76
1720808107,449:     70  77  76
1720808107,449:      0  77  76
1720808107,449:    -51  77  76
1720808107,449:    -35  77  76
1720808107,449:      9  77  76
1720808107,449:     13  77  76
1720808107,449:    -28  77  76
1720808107,449:    -50  77  76
1720808107,449:     -4  77  76
1720808107,449:     73  77  76
1720808107,449:    104  77  76
1720808107,449:     77  77  76
1720808107,449:     58  77  76
1720808107,479:    102  77  76
1720808107,479:    178  77  76
1720808107,479:    210  77  76
1720808107,479:    182  77  76
1720808107,479:    160  77  76
1720808107,479:    198  77  76
1720808107,479:    256  77  76
1720808107,509:    247  77  76
1720808107,509:    155  77  76
1720808107,509:     65  77  76
1720808107,509:     59  77  76
1720808107,509:    116  77  76
1720808107,509:    140  77  76
1720808107,509:     90  77  76
1720808107,509:     29  77  76
1720808107,509:     35  77  76
1720808107,509:     89  77  76
1720808107,509:    102  77  76
1720808107,509:     33  77  76
1720808107,509:    -58  77  76
1720808107,509:    -84  77  76
1720808107,509:    -50  77  76
1720808107,509:    -33  77  76
1720808107,509:    -77  77  76
1720808107,509:   -133  77  76
1720808107,509:   -127  77  76
1720808107,509:    -63  77  76
1720808107,509:    -22  77  76
1720808107,509:    -57  77  76
1720808107,509:   -126  77  76
1720808107,540:   -147  77  76
1720808107,540:   -104  77  76
1720808107,540:    -61  77  76
1720808107,540:    -76  77  76
1720808107,540:   -123  77  76
1720808107,540:   -133  77  76
1720808107,540:    -87  77  76
1720808107,540:    -42  77  76
1720808107,540:    -58  77  76
1720808107,540:   -118  77  76
1720808107,540:   -148  77  76
1720808107,540:   -110  77  76
1720808107,540:    -50  77  76
1720808107,540:    -33  77  76
1720808107,540:    -61  77  76
1720808107,570:    -78  77  76
1720808107,570:    -49  77  76
1720808107,570:     -4  77  76
1720808107,570:     -2  77  76
1720808107,570:    -48  77  76
1720808107,570:    -88  77  76
1720808107,570:    -82  77  76
1720808107,601:    -46  77  76
1720808107,601:    -26  77  76
1720808107,601:    -34  77  76
1720808107,601:    -31  77  76
1720808107,601:     13  77  76
1720808107,601:     70  77  76
1720808107,601:     92  77  76
1720808107,601:     69  77  76
1720808107,601:     35  77  76
1720808107,601:     16  77  76
1720808107,601:     -2  77  76
1720808107,601:    -40  77  76
1720808107,601:    -97  77  76
1720808107,601:   -158  77  76
1720808107,601:   -228  77  76
1720808107,601:   -333  77  76
1720808107,601:   -463  77  76
1720808107,601:   -534  77  76
1720808107,601:   -435  77  76
1720808107,601:   -118  77  76
1720808107,601:    411  77  76
1720808107,601:   1181  77  76
1720808107,601:   2270  77  76
1720808107,631:   3675  77  76
1720808107,631:   5187  77  76
1720808107,631:   6476  77  76
1720808107,631:   7361  77  76
1720808107,631:   7953  77  76
1720808107,631:   8450  77  76
1720808107,631:   8778  77  76
1720808107,631:   8536  77  76
1720808107,631:   7394  77  76
1720808107,631:   5520  77  76
1720808107,631:   3530  77  76
1720808107,631:   1975  77  76
1720808107,631:    906  77  76
1720808107,631:    -19  77  76
1720808107,631:  -1045  77  76
1720808107,663:  -2011  78  77
1720808107,663:  -2548  78  77
1720808107,663:  -2497  78  77
1720808107,663:  -2062  78  77
1720808107,663:  -1588  78  77
1720808107,663:  -1274  78  77
1720808107,663:  -1116  78  77
1720808107,663:  -1046  78  77
1720808107,663:  -1048  78  77
1720808107,663:  -1122  78  77
1720808107,663:  -1210  78  77
1720808107,663:  -1237  78  77
1720808107,663:  -1197  78  77
1720808107,663:  -1172  78  77
1720808107,663:  -1228  78  77
1720808107,695:  -1323  78  77
1720808107,695:  -1364  78  77
1720808107,695:  -1316  78  77
1720808107,695:  -1243  78  77
1720808107,695:  -1231  78  77
1720808107,695:  -1286  78  77
1720808107,695:  -1333  78  77
1720808107,695:  -1318  78  77
1720808107,695:  -1266  78  77
1720808107,695:  -1240  78  77
1720808107,695:  -1242  78  77
1720808107,695:  -1207  78  77
1720808107,695:  -1097  78  77
1720808107,695:   -968  78  77
1720808107,695:   -909  78  77
1720808107,726:   -938  78  77
1720808107,726:   -980  78  77
1720808107,726:   -961  78  77
1720808107,726:   -895  78  77
1720808107,726:   -851  78  77
1720808107,726:   -851  78  77
1720808107,726:   -841  78  77
1720808107,726:   -768  78  77
1720808107,726:   -666  78  77
1720808107,726:   -616  78  77
1720808107,726:   -651  78  77
1720808107,726:   -706  78  77
1720808107,726:   -700  78  77
1720808107,726:   -635  78  77
1720808107,726:   -580  78  77
1720808107,758:   -579  78  77
1720808107,758:   -589  78  77
1720808107,758:   -548  78  77
1720808107,758:   -465  78  77
1720808107,758:   -412  78  77
1720808107,758:   -438  78  77
1720808107,758:   -497  78  77
1720808107,758:   -510  78  77
1720808107,758:   -461  78  77
1720808107,758:   -413  78  77
1720808107,758:   -415  78  77
1720808107,758:   -439  78  77
1720808107,758:   -421  78  77
1720808107,758:   -351  78  77
1720808107,758:   -294  78  77
1720808107,758:   -306  78  77
1720808107,758:   -355  78  77
1720808107,758:   -362  78  77
1720808107,758:   -305  78  77
1720808107,758:   -241  78  77
1720808107,758:   -238  78  77
1720808107,758:   -279  78  77
1720808107,790:   -288  78  77
1720808107,790:   -231  78  77
1720808107,790:   -164  78  77
1720808107,790:   -161  78  77
1720808107,790:   -216  78  77
1720808107,790:   -249  78  77
1720808107,790:   -208  78  77
1720808107,790:   -135  78  77
1720808107,790:   -108  78  77
1720808107,790:   -139  78  77
1720808107,790:   -162  78  77
1720808107,790:   -126  78  77
1720808107,790:    -66  78  77
1720808107,790:    -52  78  77
1720808107,790:    -99  78  77
1720808107,822:   -143  78  77
1720808107,822:   -131  78  77
1720808107,822:    -88  78  77
1720808107,822:    -78  78  77
1720808107,822:   -112  78  77
1720808107,822:   -136  78  77
1720808107,822:   -105  78  77
1720808107,822:    -55  78  77
1720808107,822:    -57  78  77
1720808107,822:   -121  78  77
1720808107,822:   -180  78  77
1720808107,822:   -173  78  77
1720808107,822:   -125  78  77
1720808107,853:   -108  78  77
1720808107,853:   -151  78  77
1720808107,853:   -199  78  77
1720808107,853:   -190  78  77
1720808107,853:   -138  78  77
1720808107,853:   -116  78  77
1720808107,853:   -162  78  77
1720808107,853:   -228  78  77
1720808107,853:   -240  78  77
1720808107,853:   -192  78  77
1720808107,853:   -147  78  77
1720808107,853:   -157  78  77
1720808107,853:   -195  78  77
1720808107,853:   -196  78  77
1720808107,853:   -142  78  77
1720808107,883:    -87  78  77
1720808107,883:    -88  78  77
1720808107,883:   -126  78  77
1720808107,883:   -134  78  77
1720808107,883:    -86  78  77
1720808107,883:    -29  78  77
1720808107,883:    -16  78  77
1720808107,883:    -36  78  77
1720808107,883:    -33  78  77
1720808107,883:     15  78  77
1720808107,883:     58  78  77
1720808107,883:     44  78  77
1720808107,883:    -11  78  77
1720808107,883:    -35  78  77
1720808107,883:      1  78  77
1720808107,914:     48  78  77
1720808107,914:     44  78  77
1720808107,914:      3  78  77
1720808107,914:     -6  78  77
1720808107,914:     49  78  77
1720808107,914:    110  78  77
1720808107,914:    103  78  77
1720808107,914:     34  78  77
1720808107,914:    -15  78  77
1720808107,914:     10  78  77
1720808107,914:     72  78  77
1720808107,914:     97  78  77
1720808107,914:     66  78  77
1720808107,914:     38  78  77
1720808107,914:     58  78  77
1720808107,946:    103  78  77
1720808107,946:    107  78  77
1720808107,946:     60  78  77
1720808107,946:     18  78  77
1720808107,946:     28  78  77
1720808107,946:     68  78  77
1720808107,946:     76  78  77
1720808107,946:     35  78  77
1720808107,946:      0  78  77
1720808107,946:     21  78  77
1720808107,946:     75  78  77
1720808107,946:     94  78  77
1720808107,946:     50  78  77
1720808107,946:     -2  78  77
1720808107,946:      5  78  77
1720808107,946:     63  78  77
1720808107,946:    107  78  77
1720808107,946:     95  78  77
1720808107,946:     66  78  77
1720808107,946:     78  78  77
1720808107,946:    129  78  77
1720808107,946:    153  78  77
1720808107,978:    111  78  77
1720808107,978:     46  78  77
1720808107,978:     32  78  77
1720808107,978:     77  78  77
1720808107,978:    117  78  77
1720808107,978:    102  78  77
1720808107,978:     62  78  77
1720808107,978:     66  78  77
1720808107,978:    123  78  77
1720808107,978:    166  78  77
1720808107,978:    134  78  77
1720808107,978:     60  78  77
1720808107,978:     28  78  77
1720808107,978:     68  78  77
1720808107,978:    124  78  77
1720808108,010:    124  78  77
1720808108,010:     79  78  77
1720808108,010:     59  78  77
1720808108,010:     99  78  77
1720808108,010:    148  78  77
1720808108,010:    137  78  77
1720808108,010:     75  78  77
1720808108,010:     35  78  77
1720808108,010:     60  78  77
1720808108,010:    108  78  77
1720808108,010:    110  78  77
1720808108,010:     65  78  77
1720808108,010:     40  78  77
1720808108,010:     75  78  77
1720808108,010:    130  78  77
1720808108,042:    134  78  77
1720808108,042:     77  78  77
1720808108,042:     27  78  77
1720808108,042:     37  78  77
1720808108,042:     83  78  77
1720808108,042:     97  78  77
1720808108,042:     64  78  77
1720808108,042:     34  78  77
1720808108,042:     53  78  77
1720808108,042:     97  78  77
1720808108,042:     99  78  77
1720808108,042:     42  78  77
1720808108,042:    -15  78  77
1720808108,042:    -11  78  77
1720808108,042:     37  78  77
1720808108,072:     60  78  77
1720808108,072:     28  78  77
1720808108,072:    -11  78  77
1720808108,072:      1  78  77
1720808108,072:     51  78  77
1720808108,072:     69  78  77
1720808108,072:     18  78  77
1720808108,072:    -50  78  77
1720808108,072:    -63  78  77
1720808108,072:    -19  78  77
1720808108,072:     12  78  77
1720808108,072:    -17  78  77
1720808108,072:    -67  78  77
1720808108,072:    -69  78  77
1720808108,072:    -18  78  77
1720808108,104:     19  78  77
1720808108,104:    -12  78  77
1720808108,104:    -77  78  77
1720808108,104:    -99  78  77
1720808108,104:    -60  78  77
1720808108,104:    -18  78  77
1720808108,104:    -29  78  77
1720808108,104:    -72  78  77
1720808108,104:    -80  78  77
1720808108,104:    -37  78  77
1720808108,104:      4  78  77
1720808108,104:    -18  78  77
1720808108,104:    -78  78  77
1720808108,104:   -105  78  77
1720808108,104:    -69  78  77
1720808108,136:    -19  78  77
1720808108,136:    -18  78  77
1720808108,136:    -55  78  77
1720808108,136:    -64  78  77
1720808108,136:    -14  78  77
1720808108,136:     41  78  77
1720808108,136:     34  78  77
1720808108,136:    -27  78  77
1720808108,136:    -68  78  77
1720808108,136:    -45  78  77
1720808108,136:      2  78  77
1720808108,136:      3  78  77
1720808108,136:    -42  78  77
1720808108,136:    -64  78  77
1720808108,136:    -24  78  77
1720808108,136:     34  78  77
1720808108,136:     33  78  77
1720808108,136:    -27  78  77
1720808108,136:    -70  78  77
1720808108,136:    -43  78  77
1720808108,136:     19  78  77
1720808108,136:     37  78  77
1720808108,136:     -3  78  77
1720808108,168:    -36  78  77
1720808108,168:     -6  78  77
1720808108,168:     55  78  77
1720808108,168:     71  78  77
1720808108,168:     19  78  77
1720808108,168:    -36  78  77
1720808108,168:    -29  78  77
1720808108,168:     22  78  77
1720808108,168:     47  78  77
1720808108,168:     21  78  77
1720808108,168:     -4  78  77
1720808108,168:     28  78  77
1720808108,168:     96  78  77
1720808108,168:    125  78  77
1720808108,168:     80  78  77
1720808108,200:     17  78  77
1720808108,200:      7  78  77
1720808108,200:     51  78  77
1720808108,200:     80  78  77
1720808108,200:     48  78  77
1720808108,200:     -6  78  77
1720808108,200:    -15  78  77
1720808108,200:     30  78  77
1720808108,200:     65  78  77
1720808108,200:     42  78  77
1720808108,200:     -2  78  77
1720808108,200:      8  78  77
1720808108,200:     84  78  77
1720808108,200:    160  78  77
1720808108,200:    175  78  77
1720808108,231:    156  78  77
1720808108,231:    174  78  77
1720808108,231:    251  78  77
1720808108,231:    318  78  77
1720808108,231:    304  78  77
1720808108,231:    226  78  77
1720808108,231:    168  78  77
1720808108,231:    179  78  77
1720808108,231:    215  78  77
1720808108,231:    208  78  77
1720808108,231:    159  78  77
1720808108,231:    129  78  77
1720808108,231:    153  78  77
1720808108,231:    186  78  77
1720808108,231:    163  78  77
1720808108,261:     83  78  77
1720808108,261:     17  78  77
1720808108,261:      9  78  77
1720808108,261:     29  78  77
1720808108,261:     12  78  77
1720808108,261:    -45  78  77
1720808108,261:    -83  78  77
1720808108,261:    -58  78  77
1720808108,261:     -5  78  77
1720808108,261:      6  78  77
1720808108,261:    -38  78  77
1720808108,261:    -76  78  77
1720808108,261:    -56  78  77
1720808108,261:     -6  78  77
1720808108,261:      7  78  77
1720808108,292:    -35  78  77
1720808108,292:    -74  78  77
1720808108,292:    -54  78  77
1720808108,292:      6  78  77
1720808108,292:     28  78  77
1720808108,292:    -21  78  77
1720808108,292:    -87  78  77
1720808108,292:    -96  78  77
1720808108,292:    -44  78  77
1720808108,292:      1  78  77
1720808108,292:     -9  78  77
1720808108,292:    -45  78  77
1720808108,292:    -43  78  77
1720808108,292:      2  78  77
1720808108,292:     31  78  77
1720808108,324:     -4  78  77
1720808108,324:    -66  78  77
1720808108,324:    -83  78  77
1720808108,324:    -39  78  77
1720808108,324:      8  78  77
1720808108,324:     -1  78  77
1720808108,324:    -45  78  77
1720808108,324:    -52  78  77
1720808108,324:     -4  78  77
1720808108,324:     44  78  77
1720808108,324:     33  78  77
1720808108,324:    -12  78  77
1720808108,324:    -19  78  77
1720808108,324:     41  78  77
1720808108,324:    108  78  77
1720808108,356:     99  78  77
1720808108,356:     20  78  77
1720808108,356:    -44  78  77
1720808108,356:    -38  78  77
1720808108,356:    -16  78  77
1720808108,356:    -80  78  77
1720808108,356:   -247  78  77
1720808108,356:   -417  78  77
1720808108,356:   -474  78  77
1720808108,356:   -386  78  77
1720808108,356:   -193  78  77
1720808108,356:    112  78  77
1720808108,356:    653  78  77
1720808108,356:   1586  78  77
1720808108,356:   2920  78  77
1720808108,356:   4433  78  77
1720808108,356:   5806  78  77
1720808108,356:   6858  78  77
1720808108,356:   7652  78  77
1720808108,356:   8345  78  77
1720808108,356:   8917  78  77
1720808108,356:   9066  78  77
1720808108,388:   8426  81  78
1720808108,388:   6926  81  78
1720808108,388:   4937  81  78
1720808108,388:   3025  81  78
1720808108,388:   1540  81  78
1720808108,388:    434  81  78
1720808108,388:   -551  81  78
1720808108,388:  -1533  81  78
1720808108,388:  -2349  81  78
1720808108,388:  -2722  81  78
1720808108,388:  -2553  81  78
1720808108,388:  -2024  81  78
1720808108,388:  -1461  81  78
1720808108,388:  -1117  81  78
1720808108,388:  -1036  81  78
1720808108,420:  -1094  81  78
1720808108,420:  -1147  81  78
1720808108,420:  -1146  81  78
1720808108,420:  -1129  81  78
1720808108,420:  -1145  81  78
1720808108,420:  -1187  81  78
1720808108,420:  -1219  81  78
1720808108,420:  -1226  81  78
1720808108,420:  -1239  81  78
1720808108,420:  -1286  81  78
1720808108,420:  -1334  81  78
1720808108,420:  -1326  81  78
1720808108,420:  -1264  81  78
1720808108,420:  -1220  81  78
1720808108,420:  -1246  81  78
1720808108,450:  -1305  81  78
1720808108,450:  -1312  81  78
1720808108,450:  -1239  81  78
1720808108,450:  -1143  81  78
1720808108,450:  -1091  81  78
1720808108,450:  -1074  81  78
1720808108,450:  -1031  81  78
1720808108,450:   -946  81  78
1720808108,480:   -879  81  78
1720808108,480:   -890  81  78
1720808108,480:   -953  81  78
1720808108,480:   -977  81  78
1720808108,480:   -916  81  78
1720808108,480:   -824  81  78
1720808108,480:   -785  81  78
1720808108,480:   -805  81  78
1720808108,480:   -813  81  78
1720808108,480:   -759  81  78
1720808108,480:   -683  81  78
1720808108,480:   -656  81  78
1720808108,480:   -688  81  78
1720808108,480:   -707  81  78
1720808108,480:   -658  81  78
1720808108,480:   -572  81  78
1720808108,480:   -532  81  78
1720808108,480:   -560  81  78
1720808108,480:   -596  81  78
1720808108,480:   -577  81  78
1720808108,480:   -519  81  78
1720808108,480:   -485  81  78
1720808108,510:   -500  81  78
1720808108,510:   -512  81  78
1720808108,510:   -471  81  78
1720808108,510:   -397  81  78
1720808108,510:   -357  81  78
1720808108,510:   -380  81  78
1720808108,510:   -414  81  78
1720808108,510:   -397  81  78
1720808108,510:   -338  81  78
1720808108,510:   -299  81  78
1720808108,510:   -312  81  78
1720808108,510:   -334  81  78
1720808108,510:   -309  81  78
1720808108,510:   -244  81  78
1720808108,510:   -208  81  78
1720808108,542:   -237  81  78
1720808108,542:   -286  81  78
1720808108,542:   -287  81  78
1720808108,542:   -232  81  78
1720808108,542:   -185  81  78
1720808108,542:   -189  81  78
1720808108,542:   -214  81  78
1720808108,542:   -200  81  78
1720808108,542:   -143  81  78
1720808108,542:   -104  81  78
1720808108,542:   -128  81  78
1720808108,542:   -181  81  78
1720808108,542:   -192  81  78
1720808108,542:   -144  81  78
1720808108,542:    -95  81  78
1720808108,574:   -101  81  78
1720808108,574:   -143  81  78
1720808108,574:   -153  81  78
1720808108,574:   -110  81  78
1720808108,574:    -68  81  78
1720808108,574:    -87  81  78
1720808108,574:   -148  81  78
1720808108,574:   -179  81  78
1720808108,574:   -150  81  78
1720808108,574:   -108  81  78
1720808108,574:   -114  81  78
1720808108,574:   -162  81  78
1720808108,574:   -184  81  78
1720808108,574:   -146  81  78
1720808108,574:    -98  81  78
1720808108,606:   -113  81  78
1720808108,606:   -187  81  78
1720808108,606:   -241  81  78
1720808108,606:   -221  81  78
1720808108,606:   -163  81  78
1720808108,606:   -144  81  78
1720808108,606:   -181  81  78
1720808108,606:   -208  81  78
1720808108,606:   -171  81  78
1720808108,606:   -101  81  78
1720808108,606:    -75  81  78
1720808108,606:   -113  81  78
1720808108,606:   -150  81  78
1720808108,606:   -119  81  78
1720808108,606:    -42  81  78
1720808108,636:      6  81  78
1720808108,636:    -10  81  78
1720808108,636:    -35  81  78
1720808108,636:     -6  81  78
1720808108,636:     64  81  78
1720808108,636:     99  81  78
1720808108,636:     61  81  78
1720808108,636:      0  81  78
1720808108,636:    -10  81  78
1720808108,636:     35  81  78
1720808108,636:     67  81  78
1720808108,636:     44  81  78
1720808108,636:      5  81  78
1720808108,636:     19  81  78
1720808108,636:     84  81  78
1720808108,636:    128  81  78
1720808108,636:    100  81  78
1720808108,636:     41  81  78
1720808108,636:     29  81  78
1720808108,636:     78  81  78
1720808108,636:    123  81  78
1720808108,636:    105  81  78
1720808108,636:     52  81  78
1720808108,667:     37  81  78
1720808108,667:     81  81  78
1720808108,667:    122  81  78
1720808108,667:     99  81  78
1720808108,667:     32  81  78
1720808108,667:     -7  81  78
1720808108,667:     14  81  78
1720808108,667:     53  81  78
1720808108,667:     53  81  78
1720808108,667:     22  81  78
1720808108,667:     14  81  78
1720808108,667:     51  81  78
1720808108,667:     87  81  78
1720808108,667:     71  81  78
1720808108,667:     18  81  78
1720808108,699:     -7  81  78
1720808108,699:     28  81  78
1720808108,699:     79  81  78
1720808108,699:     87  81  78
1720808108,699:     55  81  78
1720808108,699:     42  81  78
1720808108,699:     82  81  78
1720808108,699:    135  81  78
1720808108,699:    136  81  78
1720808108,699:     81  81  78
1720808108,699:     35  81  78
1720808108,699:     48  81  78
1720808108,699:     92  81  78
1720808108,699:    104  81  78
1720808108,699:     70  81  78
1720808108,730:     43  81  78
1720808108,730:     68  81  78
1720808108,730:    117  81  78
1720808108,730:    122  81  78
1720808108,730:     63  81  78
1720808108,730:      2  81  78
1720808108,730:      3  81  78
1720808108,730:     54  81  78
1720808108,730:     84  81  78
1720808108,730:     58  81  78
1720808108,730:     21  81  78
1720808108,730:     35  81  78
1720808108,730:     94  81  78
1720808108,730:    125  81  78
1720808108,730:     88  81  78
1720808108,760:     26  81  78
1720808108,760:     13  81  78
1720808108,760:     55  81  78
1720808108,760:     88  81  78
1720808108,760:     66  81  78
1720808108,760:     23  81  78
1720808108,760:     26  81  78
1720808108,760:     80  81  78
1720808108,760:    116  81  78
1720808108,760:     80  81  78
1720808108,760:     10  81  78
1720808108,760:    -12  81  78
1720808108,760:     36  81  78
1720808108,760:     86  81  78
1720808108,760:     74  81  78
1720808108,790:     21  81  78
1720808108,790:      6  81  78
1720808108,790:     59  81  78
1720808108,790:    116  81  78
1720808108,790:    104  81  78
1720808108,790:     39  81  78
1720808108,790:      1  81  78
1720808108,790:     31  81  78
1720808108,790:     83  81  78
1720808108,790:     88  81  78
1720808108,790:     46  81  78
1720808108,790:     26  81  78
1720808108,790:     65  81  78
1720808108,790:    115  81  78
1720808108,790:    106  81  78
1720808108,820:     40  81  78
1720808108,820:     -7  81  78
1720808108,820:     13  81  78
1720808108,820:     63  81  78
1720808108,820:     68  81  78
1720808108,820:     20  81  78
1720808108,820:    -15  81  78
1720808108,820:     14  81  78
1720808108,820:     71  81  78
1720808108,820:     77  81  78
1720808108,820:     13  81  78
1720808108,820:    -48  81  78
1720808108,850:    -40  81  78
1720808108,850:     16  81  78
1720808108,850:     41  81  78
1720808108,850:      4  81  78
1720808108,850:    -38  81  78
1720808108,850:    -19  81  78
1720808108,850:     44  81  78
1720808108,850:     71  81  78
1720808108,850:     23  81  78
1720808108,850:    -42  81  78
1720808108,850:    -45  81  78
1720808108,850:     14  81  78
1720808108,850:     56  81  78
1720808108,850:     30  81  78
1720808108,850:    -22  81  78
1720808108,881:    -23  81  78
1720808108,881:     31  81  78
1720808108,881:     64  81  78
1720808108,881:     21  81  78
1720808108,881:    -58  81  78
1720808108,881:    -90  81  78
1720808108,881:    -54  81  78
1720808108,881:    -12  81  78
1720808108,881:    -21  81  78
1720808108,881:    -58  81  78
1720808108,881:    -55  81  78
1720808108,881:      3  81  78
1720808108,881:     51  81  78
1720808108,881:     29  81  78
1720808108,881:    -31  81  78
1720808108,913:    -53  81  78
1720808108,913:    -12  81  78
1720808108,913:     32  81  78
1720808108,913:     16  81  78
1720808108,913:    -39  81  78
1720808108,913:    -57  81  78
1720808108,913:    -11  81  78
1720808108,913:     37  81  78
1720808108,913:     19  81  78
1720808108,913:    -48  81  78
1720808108,913:    -83  81  78
1720808108,913:    -45  81  78
1720808108,913:     15  81  78
1720808108,913:     24  81  78
1720808108,913:    -19  81  78
1720808108,913:    -42  81  78
1720808108,913:      0  81  78
1720808108,913:     65  81  78
1720808108,913:     71  81  78
1720808108,913:     10  81  78
1720808108,913:    -45  81  78
1720808108,913:    -31  81  78
1720808108,944:     25  81  78
1720808108,944:     50  81  78
1720808108,944:     18  81  78
1720808108,944:    -14  81  78
1720808108,944:     10  81  78
1720808108,944:     70  81  78
1720808108,944:     90  81  78
1720808108,944:     41  81  78
1720808108,974:    -19  81  78
1720808108,974:    -22  81  78
1720808108,974:     25  81  78
1720808108,974:     53  81  78
1720808108,974:     22  81  78
1720808108,974:    -23  81  78
1720808108,974:    -18  81  78
1720808108,974:     40  81  78
1720808108,974:     85  81  78
1720808108,974:     77  81  78
1720808108,974:     53  81  78
1720808108,974:     72  81  78
1720808108,974:    137  81  78
1720808108,974:    190  81  78
1720808108,974:    193  81  78
1720808108,974:    178  81  78
1720808108,974:    198  81  78
1720808108,974:    249  81  78
1720808108,974:    267  81  78
1720808108,974:    212  81  78
1720808108,974:    128  81  78
1720808108,974:     94  81  78
1720808109,004:    124  81  78
1720808109,004:    159  81  78
1720808109,004:    143  81  78
1720808109,004:     93  81  78
1720808109,004:     74  81  78
1720808109,004:    107  81  78
1720808109,004:    137  81  78
1720808109,004:    104  81  78
1720808109,004:     25  81  78
1720808109,004:    -29  81  78
1720808109,004:    -23  81  78
1720808109,004:      5  81  78
1720808109,004:     -6  81  78
1720808109,004:    -52  81  78
1720808109,004:    -75  81  78
1720808109,034:    -43  81  78
1720808109,034:      2  81  78
1720808109,034:     -2  81  78
1720808109,034:    -56  81  78
1720808109,034:    -98  81  78
1720808109,034:    -85  81  78
1720808109,034:    -47  81  78
1720808109,034:    -43  81  78
1720808109,034:    -78  81  78
1720808109,034:    -98  81  78
1720808109,034:    -66  81  78
1720808109,034:    -21  81  78
1720808109,034:    -23  81  78
1720808109,034:    -74  81  78
1720808109,034:   -109  81  78
1720808109,064:    -81  81  78
1720808109,064:    -23  81  78
1720808109,064:     -1  81  78
1720808109,064:    -32  81  78
1720808109,064:    -59  81  78
1720808109,064:    -35  81  78
1720808109,064:     14  81  78
1720808109,064:     21  81  78
1720808109,095:    -28  81  78
1720808109,095:    -78  81  78
1720808109,095:    -73  81  78
1720808109,095:    -30  81  78
1720808109,095:    -12  81  78
1720808109,095:    -39  81  78
1720808109,095:    -65  81  78
1720808109,095:    -36  81  78
1720808109,095:     31  81  78
1720808109,095:     65  81  78
1720808109,095:     38  81  78
1720808109,095:      3  81  78
1720808109,095:     18  81  78
1720808109,095:     59  81  78
1720808109,095:     56  81  78
1720808109,095:    -15  81  78
1720808109,095:    -95  81  78
1720808109,095:   -132  81  78
1720808109,095:   -164  81  78
1720808109,095:   -272  81  78
1720808109,095:   -459  81  78
1720808109,095:   -603  81  78
1720808109,127:   -559  81  78
1720808109,127:   -285  81  78
1720808109,127:    183  81  78
1720808109,127:    871  81  78
1720808109,127:   1897  81  78
1720808109,127:   3322  81  78
1720808109,127:   4971  81  78
1720808109,127:   6491  81  78
1720808109,127:   7624  81  78
1720808109,127:   8410  81  78
1720808109,127:   9045  81  78
1720808109,127:   9530  81  78
1720808109,127:   9534  81  78
1720808109,127:   8670  81  78
1720808109,127:   6938  81  78
1720808109,158:   4832  80  79
1720808109,158:   2968  80  79
1720808109,158:   1600  80  79
1720808109,158:    530  80  79
1720808109,158:   -530  80  79
1720808109,158:  -1575  80  79
1720808109,158:  -2318  80  79
1720808109,158:  -2515  80  79
1720808109,158:  -2227  80  79
1720808109,158:  -1738  80  79
1720808109,158:  -1316  80  79
1720808109,158:  -1072  80  79
1720808109,158:   -997  80  79
1720808109,158:  -1053  80  79
1720808109,158:  -1183  80  79
1720808109,188:  -1299  80  79
1720808109,188:  -1337  80  79
1720808109,188:  -1324  80  79
1720808109,188:  -1346  80  79
1720808109,188:  -1445  80  79
1720808109,188:  -1554  80  79
1720808109,188:  -1585  80  79
1720808109,188:  -1538  80  79
1720808109,188:  -1494  80  79
1720808109,188:  -1509  80  79
1720808109,188:  -1546  80  79
1720808109,188:  -1542  80  79
1720808109,188:  -1494  80  79
1720808109,188:  -1459  80  79
1720808109,188:  -1468  80  79
1720808109,218:  -1473  80  79
1720808109,218:  -1408  80  79
1720808109,218:  -1280  80  79
1720808109,218:  -1172  80  79
1720808109,218:  -1151  80  79
1720808109,218:  -1184  80  79
1720808109,218:  -1193  80  79
1720808109,218:  -1147  80  79
1720808109,218:  -1094  80  79
1720808109,218:  -1083  80  79
1720808109,218:  -1094  80  79
1720808109,218:  -1061  80  79
1720808109,218:   -966  80  79
1720808109,218:   -872  80  79
1720808109,218:   -847  80  79
1720808109,248:   -885  80  79
1720808109,248:   -913  80  79
1720808109,248:   -883  80  79
1720808109,248:   -824  80  79
1720808109,248:   -793  80  79
1720808109,248:   -795  80  79
1720808109,248:   -779  80  79
1720808109,248:   -719  80  79
1720808109,248:   -652  80  79
1720808109,248:   -636  80  79
1720808109,248:   -673  80  79
1720808109,248:   -697  80  79
1720808109,248:   -663  80  79
1720808109,248:   -600  80  79
1720808109,248:   -570  80  79
1720808109,278:   -586  80  79
1720808109,278:   -589  80  79
1720808109,278:   -535  80  79
1720808109,278:   -457  80  79
1720808109,278:   -429  80  79
1720808109,278:   -466  80  79
1720808109,278:   -505  80  79
1720808109,278:   -482  80  79
1720808109,278:   -416  80  79
1720808109,278:   -377  80  79
1720808109,278:   -392  80  79
1720808109,278:   -410  80  79
1720808109,278:   -375  80  79
1720808109,278:   -307  80  79
1720808109,278:   -276  80  79
1720808109,309:   -313  80  79
1720808109,309:   -359  80  79
1720808109,309:   -350  80  79
1720808109,309:   -295  80  79
1720808109,309:   -261  80  79
1720808109,309:   -283  80  79
1720808109,309:   -312  80  79
1720808109,309:   -288  80  79
1720808109,309:   -221  80  79
1720808109,309:   -186  80  79
1720808109,309:   -220  80  79
1720808109,309:   -274  80  79
1720808109,309:   -279  80  79
1720808109,309:   -234  80  79
1720808109,309:   -203  80  79
1720808109,341:   -226  80  79
1720808109,341:   -262  80  79
1720808109,341:   -246  80  79
1720808109,341:   -183  80  79
1720808109,341:   -147  80  79
1720808109,341:   -187  80  79
1720808109,341:   -259  80  79
1720808109,341:   -281  80  79
1720808109,341:   -237  80  79
1720808109,341:   -193  80  79
1720808109,341:   -211  80  79
1720808109,341:   -268  80  79
1720808109,341:   -291  80  79
1720808109,341:   -253  80  79
1720808109,341:   -207  80  79
1720808109,341:   -218  80  79
1720808109,341:   -274  80  79
1720808109,341:   -307  80  79
1720808109,341:   -280  80  79
1720808109,341:   -231  80  79
1720808109,341:   -220  80  79
1720808109,341:   -245  80  79
1720808109,341:   -249  80  79
1720808109,373:   -195  80  79
1720808109,373:   -124  80  79
1720808109,373:   -101  80  79
1720808109,373:   -130  80  79
1720808109,373:   -150  80  79
1720808109,373:   -112  80  79
1720808109,373:    -39  80  79
1720808109,373:      6  80  79
1720808109,373:      5  80  79
1720808109,373:      5  80  79
1720808109,373:     47  80  79
1720808109,373:    110  80  79
1720808109,373:    134  80  79
1720808109,373:    104  80  79
1720808109,373:     70  80  79
1720808109,405:     85  80  79
1720808109,405:    137  80  79
1720808109,405:    166  80  79
1720808109,405:    147  80  79
1720808109,405:    125  80  79
1720808109,405:    147  80  79
1720808109,405:    198  80  79
1720808109,435:    215  80  79
1720808109,435:    171  80  79
1720808109,435:    118  80  79
1720808109,435:    119  80  79
1720808109,435:    169  80  79
1720808109,435:    204  80  79
1720808109,435:    186  80  79
1720808109,435:    151  80  79
1720808109,435:    160  80  79
1720808109,435:    210  80  79
1720808109,435:    237  80  79
1720808109,435:    197  80  79
1720808109,435:    132  80  79
1720808109,435:    113  80  79
1720808109,435:    152  80  79
1720808109,435:    187  80  79
1720808109,435:    168  80  79
1720808109,435:    124  80  79
1720808109,435:    120  80  79
1720808109,435:    169  80  79
1720808109,435:    207  80  79
1720808109,435:    181  80  79
1720808109,435:    116  80  79
1720808109,465:     88  80  79
1720808109,465:    122  80  79
1720808109,465:    166  80  79
1720808109,465:    159  80  79
1720808109,465:    117  80  79
1720808109,465:    106  80  79
1720808109,465:    153  80  79
1720808109,465:    201  80  79
1720808109,465:    186  80  79
1720808109,465:    119  80  79
1720808109,465:     75  80  79
1720808109,465:     99  80  79
1720808109,465:    148  80  79
1720808109,465:    151  80  79
1720808109,465:    102  80  79
1720808109,495:     68  80  79
1720808109,495:     96  80  79
1720808109,495:    151  80  79
1720808109,495:    157  80  79
1720808109,495:    101  80  79
1720808109,495:     50  80  79
1720808109,495:     66  80  79
1720808109,495:    124  80  79
1720808109,495:    147  80  79
1720808109,495:    109  80  79
1720808109,495:     67  80  79
1720808109,495:     84  80  79
1720808109,495:    141  80  79
1720808109,495:    158  80  79
1720808109,495:    104  80  79
1720808109,525:     38  80  79
1720808109,525:     35  80  79
1720808109,525:     86  80  79
1720808109,525:    120  80  79
1720808109,525:     96  80  79
1720808109,525:     60  80  79
1720808109,525:     76  80  79
1720808109,525:    133  80  79
1720808109,525:    158  80  79
1720808109,525:    115  80  79
1720808109,525:     54  80  79
1720808109,525:     47  80  79
1720808109,525:     95  80  79
1720808109,525:    130  80  79
1720808109,525:    107  80  79
1720808109,556:     64  80  79
1720808109,556:     65  80  79
1720808109,556:    114  80  79
1720808109,556:    147  80  79
1720808109,556:    117  80  79
1720808109,556:     58  80  79
1720808109,556:     39  80  79
1720808109,556:     72  80  79
1720808109,556:    103  80  79
1720808109,556:     88  80  79
1720808109,556:     48  80  79
1720808109,556:     42  80  79
1720808109,556:     82  80  79
1720808109,556:    113  80  79
1720808109,556:     84  80  79
1720808109,556:     17  80  79
1720808109,556:    -14  80  79
1720808109,556:     19  80  79
1720808109,556:     69  80  79
1720808109,556:     73  80  79
1720808109,556:     33  80  79
1720808109,556:     10  80  79
1720808109,587:     38  80  79
1720808109,587:     81  80  79
1720808109,587:     77  80  79
1720808109,587:     26  80  79
1720808109,587:    -11  80  79
1720808109,587:      6  80  79
1720808109,587:     50  80  79
1720808109,587:     63  80  79
1720808109,617:     36  80  79
1720808109,617:     23  80  79
1720808109,617:     58  80  79
1720808109,617:    106  80  79
1720808109,617:    103  80  79
1720808109,617:     43  80  79
1720808109,617:    -11  80  79
1720808109,617:     -6  80  79
1720808109,617:     34  80  79
1720808109,617:     46  80  79
1720808109,617:     11  80  79
1720808109,617:    -18  80  79
1720808109,617:      7  80  79
1720808109,617:     62  80  79
1720808109,617:     75  80  79
1720808109,647:     25  80  79
1720808109,647:    -31  80  79
1720808109,647:    -29  80  79
1720808109,647:     22  80  79
1720808109,647:     53  80  79
1720808109,647:     25  80  79
1720808109,647:    -18  80  79
1720808109,647:    -13  80  79
1720808109,647:     36  80  79
1720808109,647:     63  80  79
1720808109,647:     26  80  79
1720808109,647:    -34  80  79
1720808109,647:    -49  80  79
1720808109,647:    -12  80  79
1720808109,647:     15  80  79
1720808109,677:    -13  80  79
1720808109,677:    -57  80  79
1720808109,677:    -52  80  79
1720808109,677:      4  80  79
1720808109,677:     41  80  79
1720808109,677:      5  80  79
1720808109,677:    -67  80  79
1720808109,677:    -89  80  79
1720808109,677:    -40  80  79
1720808109,677:     14  80  79
1720808109,677:      9  80  79
1720808109,677:    -33  80  79
1720808109,677:    -40  80  79
1720808109,677:      9  80  79
1720808109,677:     51  80  79
1720808109,707:     25  80  79
1720808109,707:    -45  80  79
1720808109,707:    -76  80  79
1720808109,707:    -35  80  79
1720808109,707:     18  80  79
1720808109,707:     15  80  79
1720808109,707:    -34  80  79
1720808109,707:    -51  80  79
1720808109,707:     -1  80  79
1720808109,707:     61  80  79
1720808109,707:     61  80  79
1720808109,707:      3  80  79
1720808109,707:    -36  80  79
1720808109,707:     -8  80  79
1720808109,707:     47  80  79
1720808109,707:     58  80  79
1720808109,707:     20  80  79
1720808109,707:     -4  80  79
1720808109,707:     30  80  79
1720808109,707:     84  80  79
1720808109,707:     85  80  79
1720808109,707:     21  80  79
1720808109,739:    -40  80  79
1720808109,739:    -36  80  79
1720808109,739:     12  80  79
1720808109,739:     42  80  79
1720808109,739:     30  80  79
1720808109,739:     24  80  79
1720808109,739:     75  80  79
1720808109,739:    159  80  79
1720808109,770:    207  80  79
1720808109,770:    192  80  79
1720808109,770:    163  80  79
1720808109,770:    183  80  79
1720808109,770:    243  80  79
1720808109,770:    277  80  79
1720808109,770:    246  80  79
1720808109,770:    189  80  79
1720808109,770:    172  80  79
1720808109,770:    200  80  79
1720808109,770:    214  80  79
1720808109,770:    172  80  79
1720808109,770:    106  80  79
1720808109,770:     80  80  79
1720808109,770:    103  80  79
1720808109,801:    124  80  79
1720808109,801:     96  80  79
1720808109,801:     42  80  79
1720808109,801:     20  80  79
1720808109,801:     38  80  79
1720808109,801:     45  80  79
1720808109,801:     -6  80  79
1720808109,801:    -88  80  79
1720808109,801:   -131  80  79
1720808109,801:   -112  80  79
1720808109,801:    -78  80  79
1720808109,801:    -82  80  79
1720808109,801:   -113  80  79
1720808109,801:   -112  80  79
1720808109,801:    -61  80  79
1720808109,801:    -11  80  79
1720808109,801:    -20  80  79
1720808109,801:    -75  80  79
1720808109,801:   -103  80  79
1720808109,801:    -69  80  79
1720808109,801:    -16  80  79
1720808109,801:     -9  80  79
1720808109,833:    -49  80  79
1720808109,833:    -74  80  79
1720808109,833:    -43  80  79
1720808109,833:      9  80  79
1720808109,833:     16  80  79
1720808109,833:    -27  80  79
1720808109,833:    -57  80  79
1720808109,833:    -35  80  79
1720808109,833:     11  80  79
1720808109,833:     18  80  79
1720808109,833:    -18  80  79
1720808109,833:    -37  80  79
1720808109,833:     -1  80  79
1720808109,863:     51  80  79
1720808109,863:     49  80  79
1720808109,863:    -16  80  79
1720808109,863:    -71  80  79
1720808109,863:    -54  80  79
1720808109,863:     13  80  79
1720808109,863:     58  80  79
1720808109,863:     46  80  79
1720808109,863:     29  80  79
1720808109,863:     68  80  79
1720808109,863:    144  80  79
1720808109,863:    165  80  79
1720808109,863:     81  80  79
1720808109,863:    -44  80  79
1720808109,863:   -109  80  79
1720808109,863:   -106  80  79
1720808109,863:   -139  80  79
1720808109,863:   -292  80  79
1720808109,863:   -508  80  79
1720808109,863:   -637  80  79
1720808109,863:   -583  80  79
1720808109,863:   -368  80  79
1720808109,893:    -30  80  79
1720808109,893:    522  80  79
1720808109,893:   1458  80  79
1720808109,893:   2830  80  79
1720808109,893:   4436  80  79
1720808109,893:   5942  80  79
1720808109,893:   7140  80  79
1720808109,893:   8069  80  79
1720808109,925:   8859  78  79
1720808109,925:   9467  78  79
1720808109,925:   9598  78  79
1720808109,925:   8941  78  79
1720808109,925:   7476  78  79
1720808109,925:   5563  78  79
1720808109,925:   3709  78  79
1720808109,925:   2223  78  79
1720808109,925:   1072  78  79
1720808109,925:     53  78  79
1720808109,925:   -931  78  79
1720808109,925:  -1750  78  79
1720808109,925:  -2182  78  79
1720808109,925:  -2132  78  79
1720808109,925:  -1740  78  79
1720808109,925:  -1281  78  79
1720808109,925:   -993  78  79
1720808109,925:   -947  78  79
1720808109,925:  -1048  78  79
1720808109,925:  -1153  78  79
1720808109,925:  -1190  78  79
1720808109,925:  -1189  78  79
1720808109,957:  -1230  78  79
1720808109,957:  -1338  78  79
1720808109,957:  -1457  78  79
1720808109,957:  -1520  78  79
1720808109,957:  -1527  78  79
1720808109,957:  -1535  78  79
1720808109,957:  -1573  78  79
1720808109,957:  -1597  78  79
1720808109,957:  -1558  78  79
1720808109,957:  -1481  78  79
1720808109,957:  -1446  78  79
1720808109,957:  -1485  78  79
1720808109,957:  -1536  78  79
1720808109,957:  -1516  78  79
1720808109,957:  -1416  78  79
1720808109,989:  -1309  78  79
1720808109,989:  -1251  78  79
1720808109,989:  -1221  78  79
1720808109,989:  -1168  78  79
1720808109,989:  -1092  78  79
1720808109,989:  -1053  78  79
1720808109,989:  -1085  78  79
1720808109,989:  -1136  78  79
1720808109,989:  -1125  78  79
1720808109,989:  -1041  78  79
1720808109,989:   -952  78  79
1720808109,989:   -919  78  79
1720808109,989:   -924  78  79
1720808109,989:   -902  78  79
1720808109,989:   -836  78  79
1720808110,021:   -785  78  79
1720808110,021:   -797  78  79
1720808110,021:   -841  78  79
1720808110,021:   -841  78  79
1720808110,021:   -771  78  79
1720808110,021:   -694  78  79
1720808110,021:   -677  78  79
1720808110,021:   -710  78  79
1720808110,021:   -716  78  79
1720808110,021:   -659  78  79
1720808110,021:   -590  78  79
1720808110,021:   -579  78  79
1720808110,021:   -623  78  79
1720808110,021:   -650  78  79
1720808110,021:   -614  78  79
1720808110,021:   -549  78  79
1720808110,021:   -518  78  79
1720808110,021:   -528  78  79
1720808110,021:   -522  78  79
1720808110,021:   -466  78  79
1720808110,021:   -402  78  79
1720808110,021:   -390  78  79
1720808110,021:   -430  78  79
1720808110,053:   -452  78  79
1720808110,053:   -409  78  79
1720808110,053:   -341  78  79
1720808110,053:   -318  78  79
1720808110,053:   -350  78  79
1720808110,053:   -371  78  79
1720808110,053:   -332  78  79
1720808110,083:   -263  78  79
1720808110,083:   -241  78  79
1720808110,083:   -284  78  79
1720808110,083:   -325  78  79
1720808110,083:   -302  78  79
1720808110,083:   -234  78  79
1720808110,083:   -194  78  79
1720808110,083:   -211  78  79
1720808110,083:   -235  78  79
1720808110,083:   -205  78  79
1720808110,083:   -139  78  79
1720808110,083:   -110  78  79
1720808110,083:   -154  78  79
1720808110,083:   -219  78  79
1720808110,083:   -229  78  79
1720808110,115:   -182  78  79
1720808110,115:   -144  78  79
1720808110,115:   -166  78  79
1720808110,115:   -212  78  79
1720808110,115:   -217  78  79
1720808110,115:   -173  78  79
1720808110,115:   -142  78  79
1720808110,115:   -175  78  79
1720808110,115:   -242  78  79
1720808110,115:   -270  78  79
1720808110,115:   -241  78  79
1720808110,115:   -207  78  79
1720808110,115:   -223  78  79
1720808110,115:   -266  78  79
1720808110,115:   -271  78  79
1720808110,115:   -220  78  79
1720808110,115:   -171  78  79
1720808110,115:   -186  78  79
1720808110,115:   -242  78  79
1720808110,115:   -260  78  79
1720808110,115:   -208  78  79
1720808110,115:   -138  78  79
1720808110,115:   -119  78  79
1720808110,147:   -143  78  79
1720808110,147:   -143  78  79
1720808110,147:    -83  78  79
1720808110,147:    -12  78  79
1720808110,147:     -1  78  79
1720808110,147:    -45  78  79
1720808110,147:    -67  78  79
1720808110,147:    -19  78  79
1720808110,147:     59  78  79
1720808110,147:     90  78  79
1720808110,147:     65  78  79
1720808110,147:     53  78  79
1720808110,147:    106  78  79
1720808110,147:    183  78  79
1720808110,147:    199  78  79
1720808110,177:    139  78  79
1720808110,177:     80  78  79
1720808110,177:     95  78  79
1720808110,177:    162  78  79
1720808110,177:    191  78  79
1720808110,177:    146  78  79
1720808110,177:     92  78  79
1720808110,177:    105  78  79
1720808110,177:    178  78  79
1720808110,177:    221  78  79
1720808110,177:    183  78  79
1720808110,177:    112  78  79
1720808110,177:     90  78  79
1720808110,177:    132  78  79
1720808110,177:    170  78  79
1720808110,209:    154  78  79
1720808110,209:    115  78  79
1720808110,209:    115  78  79
1720808110,209:    160  78  79
1720808110,209:    187  78  79
1720808110,209:    154  78  79
1720808110,209:     95  78  79
1720808110,241:     81  78  79
1720808110,241:    123  78  79
1720808110,241:    164  78  79
1720808110,241:    154  78  79
1720808110,241:    115  78  79
1720808110,241:    107  78  79
1720808110,241:    138  78  79
1720808110,241:    159  78  79
1720808110,241:    129  78  79
1720808110,241:     78  78  79
1720808110,241:     62  78  79
1720808110,241:     92  78  79
1720808110,241:    119  78  79
1720808110,241:    104  78  79
1720808110,241:     73  78  79
1720808110,241:     84  78  79
1720808110,241:    140  78  79
1720808110,241:    182  78  79
1720808110,241:    158  78  79
1720808110,241:     96  78  79
1720808110,241:     71  78  79
1720808110,241:    107  78  79
1720808110,241:    153  78  79
1720808110,273:    151  78  79
1720808110,273:    109  78  79
1720808110,273:     94  78  79
1720808110,273:    137  78  79
1720808110,273:    189  78  79
1720808110,273:    182  78  79
1720808110,273:    120  78  79
1720808110,273:     74  78  79
1720808110,273:     93  78  79
1720808110,273:    142  78  79
1720808110,273:    147  78  79
1720808110,273:     97  78  79
1720808110,273:     56  78  79
1720808110,273:     78  78  79
1720808110,273:    133  78  79
1720808110,303:    143  78  79
1720808110,303:     85  78  79
1720808110,303:     25  78  79
1720808110,303:     32  78  79
1720808110,303:     93  78  79
1720808110,303:    131  78  79
1720808110,303:    108  78  79
1720808110,303:     72  78  79
1720808110,303:     85  78  79
1720808110,303:    135  78  79
1720808110,303:    150  78  79
1720808110,303:     98  78  79
1720808110,303:     32  78  79
1720808110,303:     21  78  79
1720808110,303:     61  78  79
1720808110,335:     84  78  79
1720808110,335:     54  78  79
1720808110,335:     16  78  79
1720808110,335:     30  78  79
1720808110,335:     89  78  79
1720808110,335:    119  78  79
1720808110,335:     83  78  79
1720808110,335:     29  78  79
1720808110,335:     25  78  79
1720808110,335:     72  78  79
1720808110,335:    102  78  79
1720808110,335:     73  78  79
1720808110,335:     24  78  79
1720808110,335:     26  78  79
1720808110,335:     79  78  79
1720808110,335:    112  78  79
1720808110,335:     71  78  79
1720808110,335:     -9  78  79
1720808110,335:    -43  78  79
1720808110,335:     -3  78  79
1720808110,335:     52  78  79
1720808110,335:     52  78  79
1720808110,366:      5  78  79
1720808110,366:    -18  78  79
1720808110,366:     19  78  79
1720808110,366:     70  78  79
1720808110,366:     66  78  79
1720808110,366:      4  78  79
1720808110,366:    -47  78  79
1720808110,366:    -33  78  79
1720808110,366:     17  78  79
1720808110,366:     36  78  79
1720808110,366:      5  78  79
1720808110,366:    -26  78  79
1720808110,366:    -10  78  79
1720808110,366:     30  78  79
1720808110,366:     34  78  79
1720808110,396:    -11  78  79
1720808110,396:    -51  78  79
1720808110,396:    -37  78  79
1720808110,396:     11  78  79
1720808110,396:     30  78  79
1720808110,396:      3  78  79
1720808110,396:    -20  78  79
1720808110,396:      8  78  79
1720808110,428:     60  78  79
1720808110,428:     67  78  79
1720808110,428:     11  78  79
1720808110,428:    -45  78  79
1720808110,428:    -39  78  79
1720808110,428:     12  78  79
1720808110,428:     40  78  79
1720808110,428:     12  78  79
1720808110,428:    -22  78  79
1720808110,428:     -2  78  79
1720808110,428:     60  78  79
1720808110,428:     92  78  79
1720808110,428:     55  78  79
1720808110,428:     -3  78  79
1720808110,428:    -14  78  79
1720808110,458:     27  78  79
1720808110,458:     62  78  79
1720808110,458:     49  78  79
1720808110,458:     14  78  79
1720808110,458:     15  78  79
1720808110,458:     55  78  79
1720808110,458:     81  78  79
1720808110,458:     54  78  79
1720808110,458:      5  78  79
1720808110,458:    -10  78  79
1720808110,458:     19  78  79
1720808110,458:     43  78  79
1720808110,458:     23  78  79
1720808110,458:    -10  78  79
1720808110,458:     -3  78  79
1720808110,458:     49  78  79
1720808110,458:     82  78  79
1720808110,458:     49  78  79
1720808110,458:    -19  78  79
1720808110,458:    -45  78  79
1720808110,458:     -6  78  79
1720808110,458:     39  78  79
1720808110,490:     24  78  79
1720808110,490:    -33  78  79
1720808110,490:    -58  78  79
1720808110,490:    -17  78  79
1720808110,490:     38  78  79
1720808110,490:     34  78  79
1720808110,490:    -24  78  79
1720808110,490:    -65  78  79
1720808110,490:    -41  78  79
1720808110,490:      9  78  79
1720808110,490:     17  78  79
1720808110,490:    -18  78  79
1720808110,490:    -32  78  79
1720808110,490:     14  78  79
1720808110,490:     76  78  79
1720808110,522:     81  78  79
1720808110,522:     26  78  79
1720808110,522:    -12  78  79
1720808110,522:     19  78  79
1720808110,522:     81  78  79
1720808110,522:     92  78  79
1720808110,522:     41  78  79
1720808110,522:      2  78  79
1720808110,522:     31  78  79
1720808110,522:     90  78  79
1720808110,522:     91  78  79
1720808110,522:     19  78  79
1720808110,522:    -39  78  79
1720808110,522:     -6  78  79
1720808110,522:     92  78  79
1720808110,554:    152  78  79
1720808110,554:    133  78  79
1720808110,554:    100  78  79
1720808110,554:    136  78  79
1720808110,554:    230  78  79
1720808110,554:    288  78  79
1720808110,554:    256  78  79
1720808110,554:    188  78  79
1720808110,554:    165  78  79
1720808110,554:    196  78  79
1720808110,554:    210  78  79
1720808110,554:    162  78  79
1720808110,554:     95  78  79
1720808110,554:     80  78  79
1720808110,554:    119  78  79
1720808110,584:    135  78  79
1720808110,584:     76  78  79
1720808110,584:    -18  78  79
1720808110,584:    -63  78  79
1720808110,584:    -37  78  79
1720808110,584:     -3  78  79
1720808110,584:    -24  78  79
1720808110,584:    -83  78  79
1720808110,584:   -110  78  79
1720808110,584:    -79  78  79
1720808110,584:    -41  78  79
1720808110,584:    -56  78  79
1720808110,584:   -113  78  79
1720808110,584:   -143  78  79
1720808110,584:   -112  78  79
1720808110,615:    -62  78  79
1720808110,615:    -55  78  79
1720808110,615:    -89  78  79
1720808110,615:   -104  78  79
1720808110,615:    -66  78  79
1720808110,615:    -15  78  79
1720808110,615:    -14  78  79
1720808110,615:    -64  78  79
1720808110,615:   -102  78  79
1720808110,615:    -86  78  79
1720808110,615:    -44  78  79
1720808110,615:    -36  78  79
1720808110,615:    -67  78  79
1720808110,615:    -83  78  79
1720808110,615:    -48  78  79
1720808110,615:      3  78  79
1720808110,615:      3  78  79
1720808110,615:    -58  78  79
1720808110,615:   -112  78  79
1720808110,615:   -101  78  79
1720808110,615:    -45  78  79
1720808110,615:    -17  78  79
1720808110,615:    -46  78  79
1720808110,646:    -84  78  79
1720808110,646:    -69  78  79
1720808110,646:     -9  78  79
1720808110,646:     26  78  79
1720808110,646:     -3  78  79
1720808110,646:    -52  78  79
1720808110,646:    -53  78  79
1720808110,646:      4  78  79
1720808110,646:     62  78  79
1720808110,646:     62  78  79
1720808110,646:     14  78  79
1720808110,646:    -27  78  79
1720808110,646:    -34  78  79
1720808110,646:    -40  78  79
1720808110,646:   -100  78  79
1720808110,678:   -224  78  79
1720808110,678:   -359  78  79
1720808110,678:   -447  78  79
1720808110,678:   -458  78  79
1720808110,678:   -376  78  79
1720808110,678:   -166  78  79
1720808110,678:    240  78  79
1720808110,710:    934  78  79
1720808110,710:   1973  78  79
1720808110,710:   3303  78  79
1720808110,710:   4732  78  79
1720808110,710:   6006  78  79
1720808110,710:   6972  78  79
1720808110,710:   7674  78  79
1720808110,710:   8240  78  79
1720808110,710:   8631  78  79
1720808110,710:   8551  78  79
1720808110,710:   7672  78  79
1720808110,710:   6009  78  79
1720808110,710:   4019  78  79
1720808110,710:   2281  78  79
1720808110,710:   1045  78  79
1720808110,710:    120  78  79
1720808110,710:   -800  78  79
1720808110,710:  -1742  78  79
1720808110,710:  -2426  78  79
1720808110,710:  -2579  78  79
1720808110,710:  -2235  78  79
1720808110,710:  -1705  78  79
1720808110,710:  -1303  78  79
1720808110,740:  -1130  76  79
1720808110,740:  -1098  76  79
1720808110,740:  -1097  76  79
1720808110,740:  -1102  76  79
1720808110,740:  -1128  76  79
1720808110,740:  -1166  76  79
1720808110,740:  -1181  76  79
1720808110,740:  -1165  76  79
1720808110,740:  -1167  76  79
1720808110,740:  -1230  76  79
1720808110,740:  -1332  76  79
1720808110,740:  -1401  76  79
1720808110,740:  -1388  76  79
1720808110,740:  -1323  76  79
1720808110,740:  -1283  76  79
1720808110,772:  -1301  76  79
1720808110,772:  -1330  76  79
1720808110,772:  -1311  76  79
1720808110,772:  -1247  76  79
1720808110,772:  -1192  76  79
1720808110,772:  -1170  76  79
1720808110,772:  -1142  76  79
1720808110,772:  -1069  76  79
1720808110,772:   -974  76  79
1720808110,772:   -923  76  79
1720808110,772:   -943  76  79
1720808110,772:   -983  76  79
1720808110,772:   -971  76  79
1720808110,772:   -903  76  79
1720808110,772:   -842  76  79
1720808110,804:   -834  76  79
1720808110,804:   -849  76  79
1720808110,804:   -820  76  79
1720808110,804:   -737  76  79
1720808110,804:   -663  76  79
1720808110,804:   -653  76  79
1720808110,804:   -686  76  79
1720808110,804:   -688  76  79
1720808110,804:   -631  76  79
1720808110,804:   -566  76  79
1720808110,804:   -555  76  79
1720808110,804:   -588  76  79
1720808110,804:   -600  76  79
1720808110,804:   -557  76  79
1720808110,804:   -499  76  79
1720808110,834:   -487  76  79
1720808110,834:   -515  76  79
1720808110,834:   -519  76  79
1720808110,834:   -462  76  79
1720808110,834:   -385  76  79
1720808110,834:   -359  76  79
1720808110,834:   -394  76  79
1720808110,834:   -423  76  79
1720808110,834:   -395  76  79
1720808110,834:   -331  76  79
1720808110,834:   -298  76  79
1720808110,834:   -313  76  79
1720808110,834:   -325  76  79
1720808110,834:   -287  76  79
1720808110,834:   -224  76  79
1720808110,834:   -200  76  79
1720808110,834:   -234  76  79
1720808110,834:   -268  76  79
1720808110,834:   -247  76  79
1720808110,864:   -184  76  79
1720808110,864:   -143  76  79
1720808110,864:   -153  76  79
1720808110,864:   -173  76  79
1720808110,864:   -150  76  79
1720808110,864:    -98  76  79
1720808110,864:    -80  76  79
1720808110,864:   -119  76  79
1720808110,896:   -165  76  79
1720808110,896:   -160  76  79
1720808110,896:   -116  76  79
1720808110,896:    -94  76  79
1720808110,896:   -125  76  79
1720808110,896:   -161  76  79
1720808110,896:   -142  76  79
1720808110,896:    -82  76  79
1720808110,896:    -54  76  79
1720808110,896:    -99  76  79
1720808110,896:   -167  76  79
1720808110,896:   -182  76  79
1720808110,896:   -139  76  79
1720808110,896:   -105  76  79
1720808110,896:   -128  76  79
1720808110,928:   -174  76  79
1720808110,928:   -176  76  79
1720808110,928:   -126  76  79
1720808110,928:    -92  76  79
1720808110,928:   -127  76  79
1720808110,928:   -196  76  79
1720808110,928:   -220  76  79
1720808110,928:   -178  76  79
1720808110,928:   -130  76  79
1720808110,928:   -139  76  79
1720808110,928:   -186  76  79
1720808110,928:   -200  76  79
1720808110,928:   -153  76  79
1720808110,928:    -98  76  79
1720808110,928:    -99  76  79
1720808110,928:   -146  76  79
1720808110,928:   -165  76  79
1720808110,928:   -119  76  79
1720808110,928:    -51  76  79
1720808110,928:    -26  76  79
1720808110,928:    -45  76  79
1720808110,928:    -45  76  79
1720808110,959:     10  76  79
1720808110,959:     76  76  79
1720808110,959:     84  76  79
1720808110,959:     30  76  79
1720808110,959:    -12  76  79
1720808110,959:     14  76  79
1720808110,959:     77  76  79
1720808110,959:    104  76  79
1720808110,959:     71  76  79
1720808110,959:     38  76  79
1720808110,959:     60  76  79
1720808110,959:    117  76  79
1720808110,959:    138  76  79
1720808110,959:     98  76  79
1720808110,959:     52  76  79
1720808110,989:     59  76  79
1720808110,989:    107  76  79
1720808110,989:    128  76  79
1720808110,989:     93  76  79
1720808110,989:     51  76  79
1720808110,989:     61  76  79
1720808110,989:    109  76  79
1720808110,989:    126  76  79
1720808110,989:     78  76  79
1720808110,989:     15  76  79
1720808110,989:      8  76  79
1720808110,989:     56  76  79
1720808110,989:     93  76  79
1720808110,989:     74  76  79
1720808110,989:     36  76  79
1720808111,019:     43  76  79
1720808111,019:     94  76  79
1720808111,019:    121  76  79
1720808111,019:     80  76  79
1720808111,019:     11  76  79
1720808111,019:     -8  76  79
1720808111,019:     38  76  79
1720808111,019:     80  76  79
1720808111,019:     63  76  79
1720808111,019:     14  76  79
1720808111,019:     12  76  79
1720808111,019:     74  76  79
1720808111,019:    131  76  79
1720808111,019:    113  76  79
1720808111,019:     45  76  79
1720808111,019:     12  76  79
1720808111,019:     49  76  79
1720808111,019:    101  76  79
1720808111,019:     97  76  79
1720808111,019:     48  76  79
1720808111,019:     30  76  79
1720808111,019:     75  76  79
1720808111,019:    125  76  79
1720808111,049:    107  76  79
1720808111,049:     32  76  79
1720808111,049:    -15  76  79
1720808111,049:     13  76  79
1720808111,049:     69  76  79
1720808111,049:     74  76  79
1720808111,049:     21  76  79
1720808111,080:    -17  76  79
1720808111,080:     12  76  79
1720808111,080:     70  76  79
1720808111,080:     77  76  79
1720808111,080:     16  76  79
1720808111,080:    -42  76  79
1720808111,080:    -32  76  79
1720808111,080:     24  76  79
1720808111,080:     53  76  79
1720808111,080:     25  76  79
1720808111,080:     -8  76  79
1720808111,080:     14  76  79
1720808111,080:     72  76  79
1720808111,080:     92  76  79
1720808111,080:     47  76  79
1720808111,112:     -7  76  79
1720808111,112:     -5  76  79
1720808111,112:     46  76  79
1720808111,112:     74  76  79
1720808111,112:     42  76  79
1720808111,112:     -6  76  79
1720808111,112:     -3  76  79
1720808111,112:     47  76  79
1720808111,112:     74  76  79
1720808111,112:     35  76  79
1720808111,112:    -28  76  79
1720808111,112:    -42  76  79
1720808111,112:      2  76  79
1720808111,112:     45  76  79
1720808111,112:     38  76  79
1720808111,112:      7  76  79
1720808111,112:     13  76  79
1720808111,112:     62  76  79
1720808111,112:     93  76  79
1720808111,112:     60  76  79
1720808111,112:     -2  76  79
1720808111,112:    -26  76  79
1720808111,112:      5  76  79
1720808111,143:     36  76  79
1720808111,143:     21  76  79
1720808111,143:    -18  76  79
1720808111,143:    -17  76  79
1720808111,143:     34  76  79
1720808111,143:     75  76  79
1720808111,143:     52  76  79
1720808111,143:     -7  76  79
1720808111,143:    -26  76  79
1720808111,143:     18  76  79
1720808111,143:     66  76  79
1720808111,143:     55  76  79
1720808111,143:      4  76  79
1720808111,143:    -14  76  79
1720808111,143:     33  76  79
1720808111,173:     89  76  79
1720808111,173:     81  76  79
1720808111,173:     15  76  79
1720808111,173:    -33  76  79
1720808111,173:    -14  76  79
1720808111,173:     37  76  79
1720808111,173:     48  76  79
1720808111,204:     11  76  79
1720808111,204:    -15  76  79
1720808111,204:     16  76  79
1720808111,204:     67  76  79
1720808111,204:     68  76  79
1720808111,204:      9  76  79
1720808111,204:    -44  76  79
1720808111,204:    -34  76  79
1720808111,204:     16  76  79
1720808111,204:     34  76  79
1720808111,204:     -4  76  79
1720808111,204:    -42  76  79
1720808111,204:    -23  76  79
1720808111,204:     31  76  79
1720808111,204:     49  76  79
1720808111,204:      0  76  79
1720808111,204:    -58  76  79
1720808111,204:    -54  76  79
1720808111,204:      3  76  79
1720808111,204:     42  76  79
1720808111,204:     23  76  79
1720808111,204:    -14  76  79
1720808111,204:     -3  76  79
1720808111,236:     55  76  79
1720808111,236:     89  76  79
1720808111,236:     54  76  79
1720808111,236:     -9  76  79
1720808111,236:    -27  76  79
1720808111,236:     11  76  79
1720808111,236:     44  76  79
1720808111,236:     28  76  79
1720808111,236:     -7  76  79
1720808111,236:     -3  76  79
1720808111,236:     43  76  79
1720808111,236:     69  76  79
1720808111,236:     31  76  79
1720808111,236:    -34  76  79
1720808111,236:    -53  76  79
1720808111,268:    -16  76  79
1720808111,268:     18  76  79
1720808111,268:      1  76  79
1720808111,268:    -37  76  79
1720808111,268:    -33  76  79
1720808111,268:     25  76  79
1720808111,268:     72  76  79
1720808111,268:     52  76  79
1720808111,268:     -8  76  79
1720808111,268:    -29  76  79
1720808111,268:     12  76  79
1720808111,268:     60  76  79
1720808111,268:     55  76  79
1720808111,268:     13  76  79
1720808111,268:      8  76  79
1720808111,300:     68  76  79
1720808111,300:    136  76  79
1720808111,300:    138  76  79
1720808111,300:     80  76  79
1720808111,300:     44  76  79
1720808111,300:     78  76  79
1720808111,300:    137  76  79
1720808111,300:    142  76  79
1720808111,300:     85  76  79
1720808111,300:     39  76  79
1720808111,300:     61  76  79
1720808111,300:    115  76  79
1720808111,300:    121  76  79
1720808111,300:     62  76  79
1720808111,300:     12  76  79
1720808111,331:     39  76  79
1720808111,331:    118  76  79
1720808111,331:    170  76  79
1720808111,331:    161  76  79
1720808111,331:    146  76  79
1720808111,331:    187  76  79
1720808111,331:    265  76  79
1720808111,331:    303  76  79
1720808111,331:    266  76  79
1720808111,331:    207  76  79
1720808111,331:    200  76  79
1720808111,331:    242  76  79
1720808111,331:    263  76  79
1720808111,331:    220  76  79
1720808111,331:    156  76  79
1720808111,363:    140  76  79
1720808111,363:    173  76  79
1720808111,363:    189  76  79
1720808111,363:    138  76  79
1720808111,363:     54  76  79
1720808111,363:     11  76  79
1720808111,363:     28  76  79
1720808111,363:     49  76  79
1720808111,363:     22  76  79
1720808111,363:    -36  76  79
1720808111,363:    -60  76  79
1720808111,363:    -31  76  79
1720808111,363:     -1  76  79
1720808111,363:    -25  76  79
1720808111,363:    -85  76  79
1720808111,395:   -113  76  79
1720808111,395:    -80  76  79
1720808111,395:    -32  76  79
1720808111,395:    -29  76  79
1720808111,395:    -66  76  79
1720808111,395:    -80  76  79
1720808111,395:    -39  76  79
1720808111,395:     11  76  79
1720808111,395:      7  76  79
1720808111,395:    -50  76  79
1720808111,395:    -90  76  79
1720808111,395:    -69  76  79
1720808111,395:    -18  76  79
1720808111,395:     -3  76  79
1720808111,395:    -35  76  79
1720808111,427:    -61  76  79
1720808111,427:    -37  76  79
1720808111,427:      9  76  79
1720808111,427:     13  76  79
1720808111,427:    -38  76  79
1720808111,427:    -86  76  79
1720808111,427:    -82  76  79
1720808111,427:    -42  76  79
1720808111,427:    -26  76  79
1720808111,427:    -50  76  79
1720808111,427:    -69  76  79
1720808111,427:    -38  76  79
1720808111,427:     19  76  79
1720808111,427:     37  76  79
1720808111,427:     -5  76  79
1720808111,427:    -49  76  79
1720808111,427:    -28  76  79
1720808111,427:     41  76  79
1720808111,427:     87  76  79
1720808111,427:     73  76  79
1720808111,427:     36  76  79
1720808111,427:     28  76  79
1720808111,459:     42  76  79
1720808111,459:     26  76  79
1720808111,459:    -46  76  79
1720808111,459:   -147  76  79
1720808111,459:   -239  76  79
1720808111,459:   -318  76  79
1720808111,459:   -402  76  79
1720808111,459:   -458  76  79
1720808111,459:   -405  76  79
1720808111,459:   -163  76  79
1720808111,459:    305  76  79
1720808111,459:   1033  76  79
1720808111,459:   2074  76  79
1720808111,459:   3431  76  79
1720808111,459:   4946  76  79
1720808111,490:   6332  76  79
1720808111,490:   7381  76  79
1720808111,490:   8126  76  79
1720808111,490:   8728  76  79
1720808111,490:   9169  76  79
1720808111,490:   9111  76  79
1720808111,490:   8177  76  79
1720808111,490:   6388  76  79
1720808111,490:   4270  76  79
1720808111,490:   2463  76  79
1720808111,490:   1199  76  79
1720808111,490:    227  76  79
1720808111,490:   -780  76  79
1720808111,490:  -1804  76  79
1720808111,490:  -2500  76  79
1720808111,490:  -2600  76  79
1720808111,490:  -2203  76  79
1720808111,490:  -1666  76  79
1720808111,490:  -1279  76  79
1720808111,490:  -1098  76  79
1720808111,490:  -1036  76  79
1720808111,490:  -1031  76  79
1720808111,490:  -1083  76  79
1720808111,520:  -1168  77  78
1720808111,520:  -1225  77  78
1720808111,520:  -1221  77  78
1720808111,520:  -1208  77  78
1720808111,520:  -1263  77  78
1720808111,520:  -1382  77  78
1720808111,520:  -1476  77  78
1720808111,551:  -1476  77  78
1720808111,551:  -1406  77  78
1720808111,551:  -1349  77  78
1720808111,551:  -1356  77  78
1720808111,551:  -1387  77  78
1720808111,551:  -1379  77  78
1720808111,551:  -1329  77  78
1720808111,551:  -1289  77  78
1720808111,551:  -1290  77  78
1720808111,551:  -1285  77  78
1720808111,551:  -1215  77  78
1720808111,551:  -1092  77  78
1720808111,551:   -996  77  78
1720808111,551:   -984  77  78
1720808111,551:  -1020  77  78
1720808111,582:  -1027  77  78
1720808111,582:   -980  77  78
1720808111,582:   -928  77  78
1720808111,582:   -920  77  78
1720808111,582:   -928  77  78
1720808111,582:   -893  77  78
1720808111,582:   -806  77  78
1720808111,582:   -728  77  78
1720808111,582:   -715  77  78
1720808111,582:   -742  77  78
1720808111,582:   -742  77  78
1720808111,582:   -692  77  78
1720808111,582:   -643  77  78
1720808111,582:   -647  77  78
1720808111,582:   -685  77  78
1720808111,612:   -686  77  78
1720808111,612:   -626  77  78
1720808111,612:   -560  77  78
1720808111,612:   -550  77  78
1720808111,612:   -584  77  78
1720808111,612:   -588  77  78
1720808111,612:   -527  77  78
1720808111,612:   -452  77  78
1720808111,612:   -439  77  78
1720808111,612:   -485  77  78
1720808111,612:   -513  77  78
1720808111,612:   -470  77  78
1720808111,612:   -393  77  78
1720808111,612:   -360  77  78
1720808111,612:   -385  77  78
1720808111,612:   -403  77  78
1720808111,612:   -360  77  78
1720808111,612:   -289  77  78
1720808111,612:   -265  77  78
1720808111,612:   -304  77  78
1720808111,612:   -342  77  78
1720808111,612:   -320  77  78
1720808111,612:   -257  77  78
1720808111,642:   -224  77  78
1720808111,642:   -242  77  78
1720808111,642:   -261  77  78
1720808111,642:   -232  77  78
1720808111,642:   -176  77  78
1720808111,642:   -162  77  78
1720808111,642:   -207  77  78
1720808111,642:   -255  77  78
1720808111,642:   -245  77  78
1720808111,642:   -195  77  78
1720808111,642:   -169  77  78
1720808111,642:   -193  77  78
1720808111,642:   -215  77  78
1720808111,642:   -183  77  78
1720808111,642:   -119  77  78
1720808111,672:    -97  77  78
1720808111,672:   -148  77  78
1720808111,672:   -213  77  78
1720808111,672:   -219  77  78
1720808111,672:   -169  77  78
1720808111,672:   -135  77  78
1720808111,672:   -161  77  78
1720808111,702:   -210  77  78
1720808111,702:   -212  77  78
1720808111,702:   -165  77  78
1720808111,702:   -137  77  78
1720808111,702:   -179  77  78
1720808111,702:   -251  77  78
1720808111,702:   -277  77  78
1720808111,702:   -239  77  78
1720808111,702:   -200  77  78
1720808111,702:   -218  77  78
1720808111,702:   -268  77  78
1720808111,702:   -277  77  78
1720808111,702:   -220  77  78
1720808111,702:   -158  77  78
1720808111,702:   -157  77  78
1720808111,702:   -208  77  78
1720808111,702:   -236  77  78
1720808111,702:   -197  77  78
1720808111,702:   -132  77  78
1720808111,702:   -105  77  78
1720808111,702:   -121  77  78
1720808111,702:   -125  77  78
1720808111,702:    -80  77  78
1720808111,733:    -21  77  78
1720808111,733:     -9  77  78
1720808111,733:    -43  77  78
1720808111,733:    -64  77  78
1720808111,733:    -31  77  78
1720808111,733:     25  77  78
1720808111,733:     44  77  78
1720808111,765:     19  77  78
1720808111,765:      4  77  78
1720808111,765:     41  77  78
1720808111,765:    102  77  78
1720808111,765:    118  77  78
1720808111,765:     75  77  78
1720808111,765:     31  77  78
1720808111,765:     44  77  78
1720808111,765:     97  77  78
1720808111,765:    126  77  78
1720808111,765:    104  77  78
1720808111,765:     71  77  78
1720808111,765:     82  77  78
1720808111,765:    128  77  78
1720808111,765:    149  77  78
1720808111,765:    116  77  78
1720808111,765:     70  77  78
1720808111,765:     68  77  78
1720808111,765:    108  77  78
1720808111,765:    134  77  78
1720808111,765:    109  77  78
1720808111,765:     71  77  78
1720808111,765:     77  77  78
1720808111,797:    127  77  78
1720808111,797:    159  77  78
1720808111,797:    124  77  78
1720808111,797:     57  77  78
1720808111,797:     29  77  78
1720808111,797:     63  77  78
1720808111,797:    107  77  78
1720808111,797:    105  77  78
1720808111,797:     72  77  78
1720808111,797:     66  77  78
1720808111,797:    107  77  78
1720808111,797:    146  77  78
1720808111,797:    132  77  78
1720808111,797:     83  77  78
1720808111,797:     59  77  78
1720808111,829:     85  77  78
1720808111,829:    118  77  78
1720808111,829:    107  77  78
1720808111,829:     69  77  78
1720808111,829:     63  77  78
1720808111,829:    108  77  78
1720808111,829:    150  77  78
1720808111,829:    132  77  78
1720808111,829:     71  77  78
1720808111,829:     40  77  78
1720808111,829:     73  77  78
1720808111,829:    124  77  78
1720808111,829:    126  77  78
1720808111,829:     85  77  78
1720808111,829:     68  77  78
1720808111,829:    110  77  78
1720808111,829:    166  77  78
1720808111,829:    163  77  78
1720808111,829:    101  77  78
1720808111,829:     54  77  78
1720808111,859:     74  77  78
1720808111,859:    129  77  78
1720808111,859:    145  77  78
1720808111,859:    107  77  78
1720808111,859:     74  77  78
1720808111,859:     94  77  78
1720808111,859:    143  77  78
1720808111,859:    151  77  78
1720808111,859:    101  77  78
1720808111,859:     50  77  78
1720808111,859:     55  77  78
1720808111,859:     99  77  78
1720808111,859:    122  77  78
1720808111,859:    102  77  78
1720808111,859:     81  77  78
1720808111,891:    101  77  78
1720808111,891:    142  77  78
1720808111,891:    143  77  78
1720808111,891:     85  77  78
1720808111,891:     26  77  78
1720808111,891:     22  77  78
1720808111,891:     61  77  78
1720808111,923:     80  77  78
1720808111,923:     48  77  78
1720808111,923:     10  77  78
1720808111,923:     23  77  78
1720808111,923:     77  77  78
1720808111,923:    106  77  78
1720808111,923:     70  77  78
1720808111,923:      7  77  78
1720808111,923:    -13  77  78
1720808111,923:     22  77  78
1720808111,923:     57  77  78
1720808111,923:     39  77  78
1720808111,923:    -11  77  78
1720808111,923:    -27  77  78
1720808111,923:     10  77  78
1720808111,923:     48  77  78
1720808111,923:     29  77  78
1720808111,923:    -32  77  78
1720808111,923:    -69  77  78
1720808111,923:    -46  77  78
1720808111,923:     -5  77  78
1720808111,923:     -5  77  78
1720808111,923:    -47  77  78
1720808111,953:    -69  77  78
1720808111,953:    -37  77  78
1720808111,953:      8  77  78
1720808111,953:      4  77  78
1720808111,953:    -51  77  78
1720808111,953:    -92  77  78
1720808111,953:    -72  77  78
1720808111,985:    -22  77  78
1720808111,985:    -10  77  78
1720808111,985:    -45  77  78
1720808111,985:    -71  77  78
1720808111,985:    -43  77  78
1720808111,985:      7  77  78
1720808111,985:     12  77  78
1720808111,985:    -44  77  78
1720808111,985:    -97  77  78
1720808111,985:    -92  77  78
1720808111,985:    -48  77  78
1720808111,985:    -30  77  78
1720808111,985:    -59  77  78
1720808111,985:    -85  77  78
1720808111,985:    -58  77  78
1720808111,985:     -6  77  78
1720808111,985:      6  77  78
1720808111,985:    -42  77  78
1720808111,985:    -89  77  78
1720808111,985:    -79  77  78
1720808111,985:    -31  77  78
1720808111,985:    -15  77  78
1720808111,985:    -55  77  78
1720808112,015:    -93  77  78
1720808112,015:    -71  77  78
1720808112,015:    -10  77  78
1720808112,015:     11  77  78
1720808112,015:    -38  77  78
1720808112,015:    -99  77  78
1720808112,015:    -97  77  78
1720808112,015:    -41  77  78
1720808112,015:     -5  77  78
1720808112,015:    -33  77  78
1720808112,015:    -79  77  78
1720808112,015:    -68  77  78
1720808112,015:     -1  77  78
1720808112,015:     48  77  78
1720808112,015:     21  77  78
1720808112,047:    -42  77  78
1720808112,047:    -60  77  78
1720808112,047:    -14  77  78
1720808112,047:     36  77  78
1720808112,047:     28  77  78
1720808112,047:    -16  77  78
1720808112,047:    -25  77  78
1720808112,047:     23  77  78
1720808112,047:     72  77  78
1720808112,047:     56  77  78
1720808112,047:    -10  77  78
1720808112,047:    -49  77  78
1720808112,047:    -21  77  78
1720808112,047:     29  77  78
1720808112,047:     35  77  78
1720808112,077:     -1  77  78
1720808112,077:    -17  77  78
1720808112,077:     23  77  78
1720808112,077:     73  77  78
1720808112,077:     67  77  78
1720808112,077:      7  77  78
1720808112,077:    -35  77  78
1720808112,077:     -9  77  78
1720808112,077:     47  77  78
1720808112,077:     61  77  78
1720808112,077:     23  77  78
1720808112,077:     -2  77  78
1720808112,077:     39  77  78
1720808112,077:    109  77  78
1720808112,077:    130  77  78
1720808112,077:     83  77  78
1720808112,077:     32  77  78
1720808112,077:     44  77  78
1720808112,077:     98  77  78
1720808112,077:    122  77  78
1720808112,077:     88  77  78
1720808112,077:     49  77  78
1720808112,109:     63  77  78
1720808112,109:    110  77  78
1720808112,109:    122  77  78
1720808112,109:     76  77  78
1720808112,109:     33  77  78
1720808112,109:     57  77  78
1720808112,109:    132  77  78
1720808112,109:    186  77  78
1720808112,140:    183  77  78
1720808112,141:    171  77  78
1720808112,141:    208  77  78
1720808112,141:    280  77  78
1720808112,141:    313  77  78
1720808112,141:    268  77  78
1720808112,141:    195  77  78
1720808112,141:    168  77  78
1720808112,141:    193  77  78
1720808112,141:    207  77  78
1720808112,141:    170  77  78
1720808112,141:    117  77  78
1720808112,141:    111  77  78
1720808112,141:    154  77  78
1720808112,141:    178  77  78
1720808112,171:    133  77  78
1720808112,171:     53  77  78
1720808112,171:     15  77  78
1720808112,171:     39  77  78
1720808112,171:     64  77  78
1720808112,171:     32  77  78
1720808112,171:    -39  77  78
1720808112,171:    -71  77  78
1720808112,171:    -37  77  78
1720808112,171:      8  77  78
1720808112,171:     -5  77  78
1720808112,171:    -66  77  78
1720808112,171:   -101  77  78
1720808112,171:    -72  77  78
1720808112,171:    -22  77  78
1720808112,202:    -19  77  78
1720808112,202:    -61  77  78
1720808112,202:    -82  77  78
1720808112,202:    -45  77  78
1720808112,202:      2  77  78
1720808112,202:    -13  77  78
1720808112,202:    -86  77  78
1720808112,202:   -140  77  78
1720808112,202:   -118  77  78
1720808112,202:    -58  77  78
1720808112,202:    -36  77  78
1720808112,202:    -69  77  78
1720808112,202:    -96  77  78
1720808112,202:    -61  77  78
1720808112,202:      8  77  78
1720808112,202:     33  77  78
1720808112,202:    -15  77  78
1720808112,202:    -76  77  78
1720808112,202:    -80  77  78
1720808112,202:    -34  77  78
1720808112,202:     -8  77  78
1720808112,202:    -40  77  78
1720808112,232:    -83  77  78
1720808112,232:    -72  77  78
1720808112,232:     -9  77  78
1720808112,232:     35  77  78
1720808112,232:     12  77  78
1720808112,232:    -37  77  78
1720808112,232:    -36  77  78
1720808112,232:     34  77  78
1720808112,232:    108  77  78
1720808112,232:    104  77  78
1720808112,232:     26  77  78
1720808112,232:    -50  77  78
1720808112,232:    -68  77  78
1720808112,232:    -71  77  78
1720808112,232:   -152  77  78
1720808112,262:   -337  77  78
1720808112,262:   -545  77  78
1720808112,262:   -665  77  78
1720808112,262:   -644  77  78
1720808112,262:   -483  77  78
1720808112,262:   -156  77  78
1720808112,262:    446  77  78
1720808112,262:   1435  77  78
1720808112,292:   2802  77  78
1720808112,292:   4367  77  78
1720808112,292:   5884  77  78
1720808112,292:   7182  77  78
1720808112,292:   8225  77  78
1720808112,292:   9050  77  78
1720808112,292:   9622  77  78
1720808112,292:   9762  77  78
1720808112,292:   9226  77  78
1720808112,292:   7914  77  78
1720808112,292:   6033  77  78
1720808112,292:   4043  77  78
1720808112,292:   2369  77  78
1720808112,292:   1128  77  78
1720808112,292:    130  77  78
1720808112,292:   -834  77  78
1720808112,292:  -1719  77  78
1720808112,292:  -2253  77  78
1720808112,292:  -2239  77  78
1720808112,292:  -1792  77  78
1720808112,292:  -1269  77  78
1720808112,292:   -981  77  78
1720808112,322:   -976  76  77
1720808112,322:  -1092  76  77
1720808112,322:  -1170  76  77
1720808112,322:  -1190  76  77
1720808112,322:  -1220  76  77
1720808112,322:  -1301  76  77
1720808112,322:  -1398  76  77
1720808112,322:  -1458  76  77
1720808112,322:  -1484  76  77
1720808112,322:  -1521  76  77
1720808112,322:  -1590  76  77
1720808112,322:  -1650  76  77
1720808112,322:  -1645  76  77
1720808112,322:  -1582  76  77
1720808112,322:  -1526  76  77
1720808112,353:  -1524  76  77
1720808112,353:  -1547  76  77
1720808112,353:  -1535  76  77
1720808112,353:  -1472  76  77
1720808112,353:  -1404  76  77
1720808112,353:  -1370  76  77
1720808112,353:  -1348  76  77
1720808112,353:  -1294  76  77
1720808112,353:  -1212  76  77
1720808112,353:  -1156  76  77
1720808112,353:  -1160  76  77
1720808112,353:  -1186  76  77
1720808112,353:  -1166  76  77
1720808112,353:  -1088  76  77
1720808112,353:  -1013  76  77
1720808112,385:   -992  76  77
1720808112,385:  -1004  76  77
1720808112,385:   -985  76  77
1720808112,385:   -916  76  77
1720808112,385:   -851  76  77
1720808112,385:   -844  76  77
1720808112,385:   -874  76  77
1720808112,385:   -871  76  77
1720808112,385:   -805  76  77
1720808112,385:   -726  76  77
1720808112,385:   -702  76  77
1720808112,385:   -731  76  77
1720808112,385:   -748  76  77
1720808112,385:   -709  76  77
1720808112,385:   -647  76  77
1720808112,417:   -620  76  77
1720808112,417:   -631  76  77
1720808112,417:   -628  76  77
1720808112,417:   -572  76  77
1720808112,417:   -499  76  77
1720808112,417:   -475  76  77
1720808112,417:   -507  76  77
1720808112,417:   -534  76  77
1720808112,417:   -506  76  77
1720808112,417:   -444  76  77
1720808112,417:   -412  76  77
1720808112,417:   -429  76  77
1720808112,417:   -445  76  77
1720808112,417:   -410  76  77
1720808112,417:   -347  76  77
1720808112,449:   -320  76  77
1720808112,449:   -351  76  77
1720808112,449:   -386  76  77
1720808112,449:   -367  76  77
1720808112,449:   -309  76  77
1720808112,449:   -277  76  77
1720808112,449:   -298  76  77
1720808112,449:   -323  76  77
1720808112,449:   -295  76  77
1720808112,449:   -227  76  77
1720808112,449:   -192  76  77
1720808112,449:   -229  76  77
1720808112,449:   -283  76  77
1720808112,449:   -281  76  77
1720808112,449:   -220  76  77
1720808112,449:   -170  76  77
1720808112,449:   -185  76  77
1720808112,449:   -229  76  77
1720808112,449:   -228  76  77
1720808112,449:   -168  76  77
1720808112,449:   -121  76  77
1720808112,449:   -147  76  77
1720808112,449:   -215  76  77
1720808112,481:   -244  76  77
1720808112,481:   -208  76  77
1720808112,481:   -164  76  77
1720808112,481:   -175  76  77
1720808112,481:   -223  76  77
1720808112,481:   -241  76  77
1720808112,481:   -206  76  77
1720808112,481:   -172  76  77
1720808112,481:   -200  76  77
1720808112,481:   -268  76  77
1720808112,481:   -300  76  77
1720808112,481:   -268  76  77
1720808112,481:   -223  76  77
1720808112,481:   -227  76  77
1720808112,481:   -268  76  77
1720808112,513:   -277  76  77
1720808112,513:   -224  76  77
1720808112,513:   -164  76  77
1720808112,513:   -163  76  77
1720808112,513:   -210  76  77
1720808112,513:   -227  76  77
1720808112,513:   -175  76  77
1720808112,513:    -96  76  77
1720808112,513:    -61  76  77
1720808112,513:    -72  76  77
1720808112,513:    -68  76  77
1720808112,513:     -5  76  77
1720808112,513:     76  76  77
1720808112,513:    105  76  77
1720808112,513:     73  76  77
1720808112,544:     46  76  77
1720808112,544:     76  76  77
1720808112,544:    135  76  77
1720808112,544:    158  76  77
1720808112,544:    129  76  77
1720808112,544:    107  76  77
1720808112,544:    141  76  77
1720808112,544:    204  76  77
1720808112,544:    221  76  77
1720808112,544:    172  76  77
1720808112,544:    119  76  77
1720808112,544:    130  76  77
1720808112,544:    190  76  77
1720808112,544:    224  76  77
1720808112,544:    196  76  77
1720808112,575:    155  76  77
1720808112,575:    172  76  77
1720808112,575:    238  76  77
1720808112,575:    272  76  77
1720808112,575:    227  76  77
1720808112,575:    152  76  77
1720808112,575:    131  76  77
1720808112,575:    178  76  77
1720808112,575:    220  76  77
1720808112,575:    200  76  77
1720808112,575:    146  76  77
1720808112,575:    134  76  77
1720808112,575:    180  76  77
1720808112,575:    222  76  77
1720808112,575:    196  76  77
1720808112,606:    131  76  77
1720808112,606:    103  76  77
1720808112,606:    139  76  77
1720808112,606:    182  76  77
1720808112,606:    171  76  77
1720808112,606:    124  76  77
1720808112,606:    113  76  77
1720808112,606:    161  76  77
1720808112,606:    208  76  77
1720808112,606:    188  76  77
1720808112,606:    117  76  77
1720808112,606:     81  76  77
1720808112,606:    119  76  77
1720808112,606:    181  76  77
1720808112,606:    191  76  77
1720808112,638:    150  76  77
1720808112,638:    132  76  77
1720808112,638:    176  76  77
1720808112,638:    236  76  77
1720808112,638:    234  76  77
1720808112,638:    168  76  77
1720808112,638:    116  76  77
1720808112,638:    134  76  77
1720808112,638:    188  76  77
1720808112,638:    198  76  77
1720808112,638:    152  76  77
1720808112,638:    117  76  77
1720808112,638:    150  76  77
1720808112,638:    214  76  77
1720808112,638:    227  76  77
1720808112,670:    164  76  77
1720808112,670:     96  76  77
1720808112,670:     94  76  77
1720808112,670:    141  76  77
1720808112,670:    164  76  77
1720808112,670:    127  76  77
1720808112,670:     82  76  77
1720808112,670:     93  76  77
1720808112,670:    146  76  77
1720808112,670:    169  76  77
1720808112,670:    124  76  77
1720808112,670:     63  76  77
1720808112,670:     58  76  77
1720808112,670:    109  76  77
1720808112,670:    145  76  77
1720808112,670:    121  76  77
1720808112,670:     73  76  77
1720808112,670:     70  76  77
1720808112,670:    119  76  77
1720808112,670:    153  76  77
1720808112,670:    120  76  77
1720808112,670:     52  76  77
1720808112,702:     23  76  77
1720808112,702:     56  76  77
1720808112,702:     96  76  77
1720808112,702:     88  76  77
1720808112,702:     48  76  77
1720808112,702:     39  76  77
1720808112,702:     81  76  77
1720808112,702:    120  76  77
1720808112,702:     97  76  77
1720808112,702:     34  76  77
1720808112,702:      3  76  77
1720808112,702:     34  76  77
1720808112,702:     78  76  77
1720808112,702:     73  76  77
1720808112,702:     24  76  77
1720808112,734:      1  76  77
1720808112,734:     37  76  77
1720808112,734:     86  76  77
1720808112,734:     76  76  77
1720808112,734:      8  76  77
1720808112,734:    -45  76  77
1720808112,734:    -34  76  77
1720808112,734:     10  76  77
1720808112,734:     19  76  77
1720808112,734:    -16  76  77
1720808112,734:    -33  76  77
1720808112,734:      7  76  77
1720808112,734:     64  76  77
1720808112,734:     63  76  77
1720808112,734:     -3  76  77
1720808112,766:    -61  76  77
1720808112,766:    -51  76  77
1720808112,766:     -2  76  77
1720808112,766:     10  76  77
1720808112,766:    -34  76  77
1720808112,766:    -68  76  77
1720808112,766:    -34  76  77
1720808112,766:     38  76  77
1720808112,766:     62  76  77
1720808112,766:      9  76  77
1720808112,766:    -55  76  77
1720808112,766:    -55  76  77
1720808112,766:     -6  76  77
1720808112,766:     17  76  77
1720808112,766:    -20  76  77
1720808112,796:    -59  76  77
1720808112,796:    -32  76  77
1720808112,796:     42  76  77
1720808112,796:     75  76  77
1720808112,796:     27  76  77
1720808112,796:    -42  76  77
1720808112,796:    -52  76  77
1720808112,796:     -3  76  77
1720808112,796:     27  76  77
1720808112,796:     -6  76  77
1720808112,796:    -53  76  77
1720808112,796:    -38  76  77
1720808112,796:     34  76  77
1720808112,796:     82  76  77
1720808112,796:     49  76  77
1720808112,826:    -17  76  77
1720808112,826:    -27  76  77
1720808112,826:     28  76  77
1720808112,826:     76  76  77
1720808112,826:     56  76  77
1720808112,826:      3  76  77
1720808112,826:      1  76  77
1720808112,826:     65  76  77
1720808112,826:    118  76  77
1720808112,826:     83  76  77
1720808112,826:    -11  76  77
1720808112,826:    -66  76  77
1720808112,826:    -37  76  77
1720808112,826:     20  76  77
1720808112,826:     23  76  77
1720808112,858:    -28  76  77
1720808112,858:    -61  76  77
1720808112,858:    -30  76  77
1720808112,858:     20  76  77
1720808112,858:     16  76  77
1720808112,858:    -43  76  77
1720808112,858:    -87  76  77
1720808112,858:    -66  76  77
1720808112,858:    -20  76  77
1720808112,858:    -15  76  77
1720808112,858:    -57  76  77
1720808112,858:    -75  76  77
1720808112,858:    -27  76  77
1720808112,858:     40  76  77
1720808112,858:     45  76  77
1720808112,858:    -20  76  77
1720808112,858:    -72  76  77
1720808112,858:    -44  76  77
1720808112,858:     29  76  77
1720808112,858:     60  76  77
1720808112,890:     22  76  77
1720808112,890:    -17  76  77
1720808112,890:     13  76  77
1720808112,890:     87  76  77
1720808112,890:    118  76  77
1720808112,890:     64  76  77
1720808112,890:    -13  76  77
1720808112,890:    -28  76  77
1720808112,890:     25  76  77
1720808112,890:     74  76  77
1720808112,890:     68  76  77
1720808112,890:     42  76  77
1720808112,890:     61  76  77
1720808112,890:    128  76  77
1720808112,890:    173  76  77
1720808112,922:    150  76  77
1720808112,922:    104  76  77
1720808112,922:    105  76  77
1720808112,922:    156  76  77
1720808112,922:    189  76  77
1720808112,922:    158  76  77
1720808112,922:    110  76  77
1720808112,922:    119  76  77
1720808112,922:    183  76  77
1720808112,922:    220  76  77
1720808112,922:    167  76  77
1720808112,922:     71  76  77
1720808112,922:     28  76  77
1720808112,922:     62  76  77
1720808112,922:     98  76  77
1720808112,952:     69  76  77
1720808112,952:      1  76  77
1720808112,952:    -18  76  77
1720808112,952:     34  76  77
1720808112,952:     85  76  77
1720808112,952:     56  76  77
1720808112,952:    -31  76  77
1720808112,952:    -87  76  77
1720808112,952:    -65  76  77
1720808112,952:    -17  76  77
1720808112,952:    -15  76  77
1720808112,952:    -56  76  77
1720808112,952:    -66  76  77
1720808112,952:    -11  76  77
1720808112,952:     51  76  77
1720808112,984:     42  76  77
1720808112,984:    -35  76  77
1720808112,984:    -91  76  77
1720808112,984:    -73  76  77
1720808112,984:    -26  76  77
1720808112,984:    -33  76  77
1720808112,984:    -97  76  77
1720808112,984:   -132  76  77
1720808112,984:    -75  76  77
1720808112,984:     19  76  77
1720808112,984:     46  76  77
1720808112,984:    -16  76  77
1720808112,984:    -78  76  77
1720808112,984:    -56  76  77
1720808112,984:     17  76  77
1720808113,015:     41  76  77
1720808113,015:    -20  76  77
1720808113,015:    -86  76  77
1720808113,015:    -72  76  77
1720808113,015:     -3  76  77
1720808113,015:     17  76  77
1720808113,015:    -51  76  77
1720808113,015:   -125  76  77
1720808113,015:   -107  76  77
1720808113,015:     -9  76  77
1720808113,015:     65  76  77
1720808113,015:     56  76  77
1720808113,015:     24  76  77
1720808113,015:     58  76  77
1720808113,015:    136  76  77
1720808113,045:    148  76  77
1720808113,045:     41  76  77
1720808113,045:    -95  76  77
1720808113,045:   -148  76  77
1720808113,045:   -131  76  77
1720808113,045:   -173  76  77
1720808113,045:   -340  76  77
1720808113,045:   -517  76  77
1720808113,045:   -517  76  77
1720808113,045:   -273  76  77
1720808113,045:    131  76  77
1720808113,045:    646  76  77
1720808113,045:   1402  76  77
1720808113,045:   2571  76  77
1720808113,045:   4089  76  77
1720808113,075:   5604  76  77
1720808113,075:   6763  76  77
1720808113,075:   7532  76  77
1720808113,075:   8147  76  77
1720808113,075:   8720  76  77
1720808113,075:   8976  76  77
1720808113,075:   8456  76  77
1720808113,075:   7021  76  77
1720808113,075:   5070  76  77
1720808113,075:   3229  76  77
1720808113,075:   1838  76  77
1720808113,075:    776  76  77
1720808113,075:   -233  76  77
1720808113,075:  -1243  76  77
1720808113,075:  -2034  76  77
1720808113,075:  -2382  76  77
1720808113,075:  -2284  76  77
1720808113,075:  -1931  76  77
1720808113,075:  -1523  76  77
1720808113,075:  -1188  76  77
1720808113,075:  -1002  76  77
1720808113,075:   -987  76  77
1720808113,105:  -1090  77  76
1720808113,105:  -1183  77  76
1720808113,105:  -1177  77  76
1720808113,105:  -1114  77  76
1720808113,105:  -1119  77  76
1720808113,105:  -1239  77  76
1720808113,105:  -1381  77  76
1720808113,105:  -1424  77  76
1720808113,135:  -1364  77  76
1720808113,135:  -1303  77  76
1720808113,135:  -1302  77  76
1720808113,135:  -1319  77  76
1720808113,135:  -1287  77  76
1720808113,135:  -1224  77  76
1720808113,135:  -1217  77  76
1720808113,135:  -1296  77  76
1720808113,135:  -1375  77  76
1720808113,135:  -1351  77  76
1720808113,135:  -1228  77  76
1720808113,135:  -1110  77  76
1720808113,135:  -1072  77  76
1720808113,135:  -1075  77  76
1720808113,135:  -1032  77  76
1720808113,165:   -938  77  76
1720808113,165:   -872  77  76
1720808113,165:   -892  77  76
1720808113,165:   -941  77  76
1720808113,165:   -918  77  76
1720808113,165:   -808  77  76
1720808113,165:   -699  77  76
1720808113,165:   -671  77  76
1720808113,165:   -700  77  76
1720808113,165:   -698  77  76
1720808113,165:   -634  77  76
1720808113,165:   -573  77  76
1720808113,165:   -580  77  76
1720808113,165:   -627  77  76
1720808113,165:   -624  77  76
1720808113,195:   -538  77  76
1720808113,195:   -431  77  76
1720808113,195:   -386  77  76
1720808113,195:   -403  77  76
1720808113,195:   -412  77  76
1720808113,195:   -372  77  76
1720808113,195:   -321  77  76
1720808113,195:   -320  77  76
1720808113,195:   -360  77  76
1720808113,195:   -372  77  76
1720808113,195:   -315  77  76
1720808113,195:   -235  77  76
1720808113,195:   -203  77  76
1720808113,195:   -225  77  76
1720808113,195:   -236  77  76
1720808113,195:   -191  77  76
1720808113,195:   -128  77  76
1720808113,195:   -122  77  76
1720808113,195:   -181  77  76
1720808113,195:   -229  77  76
1720808113,195:   -198  77  76
1720808113,195:   -115  77  76
1720808113,225:    -64  77  76
1720808113,225:    -82  77  76
1720808113,225:   -113  77  76
1720808113,225:    -91  77  76
1720808113,225:    -30  77  76
1720808113,225:      1  77  76
1720808113,225:    -34  77  76
1720808113,225:    -78  77  76
1720808113,255:    -60  77  76
1720808113,255:     12  77  76
1720808113,255:     64  77  76
1720808113,255:     49  77  76
1720808113,255:      7  77  76
1720808113,255:      0  77  76
1720808113,255:     27  77  76
1720808113,255:     23  77  76
1720808113,255:    -41  77  76
1720808113,255:   -110  77  76
1720808113,255:   -112  77  76
1720808113,255:    -54  77  76
1720808113,255:    -15  77  76
1720808113,255:    -43  77  76
1720808113,255:    -95  77  76
1720808113,255:    -96  77  76
1720808113,255:    -43  77  76
1720808113,255:    -12  77  76
1720808113,255:    -61  77  76
1720808113,255:   -149  77  76
1720808113,255:   -190  77  76
1720808113,255:   -159  77  76
1720808113,286:   -120  77  76
1720808113,286:   -137  77  76
1720808113,286:   -193  77  76
1720808113,286:   -216  77  76
1720808113,286:   -182  77  76
1720808113,286:   -146  77  76
1720808113,286:   -166  77  76
1720808113,286:   -223  77  76
1720808113,552:   -241  77  76
1720808113,552:   -185  77  76
1720808113,552:   -107  77  76
1720808113,552:    -78  77  76
1720808113,552:   -103  77  76
1720808113,552:   -115  77  76
1720808113,552:    -73  77  76
1720808113,552:    -12  77  76
1720808113,552:      2  77  76
1720808113,552:    -42  77  76
1720808113,552:    -84  77  76
1720808113,552:    -73  77  76
1720808113,552:    -26  77  76
1720808113,552:      3  77  76
1720808113,552:     -4  77  76
1720808113,552:     -6  77  76
1720808113,552:     35  77  76
1720808113,552:     93  77  76
1720808113,552:    109  77  76
1720808113,552:     65  77  76
1720808113,552:     13  77  76
1720808113,552:      5  77  76
1720808113,552:     27  77  76
1720808113,552:     22  77  76
1720808113,552:    -33  77  76
1720808113,552:    -88  77  76
1720808113,552:    -81  77  76
1720808113,552:    -22  77  76
1720808113,552:     18  77  76
1720808113,552:     -2  77  76
1720808113,584:    -39  77  76
1720808113,584:    -25  77  76
1720808113,584:     45  77  76
1720808113,584:    102  77  76
1720808113,584:     93  77  76
1720808113,584:     44  77  76
1720808113,584:     27  77  76
1720808113,584:     61  77  76
1720808113,584:     89  77  76
1720808113,584:     56  77  76
1720808113,584:    -15  77  76
1720808113,584:    -55  77  76
1720808113,584:    -37  77  76
1720808113,584:     -6  77  76
1720808113,584:    -15  77  76
1720808113,584:    -46  77  76
1720808113,584:    -41  77  76
1720808113,584:     17  77  76
1720808113,584:     67  77  76
1720808113,584:     51  77  76
1720808113,584:     -6  77  76
1720808113,584:    -27  77  76
1720808113,616:     16  77  76
1720808113,616:     69  77  76
1720808113,616:     65  77  76
1720808113,616:     18  77  76
1720808113,616:      4  77  76
1720808113,616:     55  77  76
1720808113,616:    112  77  76
1720808113,616:    101  77  76
1720808113,616:     35  77  76
1720808113,616:     -2  77  76
1720808113,616:     34  77  76
1720808113,616:     90  77  76
1720808113,616:     85  77  76
1720808113,616:     22  77  76
1720808113,616:    -12  77  76
1720808113,616:     34  77  76
1720808113,616:    108  77  76
1720808113,616:    116  77  76
1720808113,616:     45  77  76
1720808113,616:    -19  77  76
1720808113,616:     -5  77  76
1720808113,616:     57  77  76
1720808113,616:     82  77  76
1720808113,646:     37  77  76
1720808113,646:    -13  77  76
1720808113,646:     -3  77  76
1720808113,646:     50  77  76
1720808113,646:     67  77  76
1720808113,646:     18  77  76
1720808113,646:    -42  77  76
1720808113,646:    -44  77  76
1720808113,646:      3  77  76
1720808113,646:     29  77  76
1720808113,646:     -1  77  76
1720808113,646:    -42  77  76
1720808113,646:    -30  77  76
1720808113,646:     24  77  76
1720808113,646:     47  77  76
1720808113,646:      0  77  76
1720808113,646:    -66  77  76
1720808113,646:    -77  77  76
1720808113,646:    -30  77  76
1720808113,646:      1  77  76
1720808113,646:    -32  77  76
1720808113,646:    -89  77  76
1720808113,676:    -96  77  76
1720808113,676:    -48  77  76
1720808113,676:    -16  77  76
1720808113,676:    -58  77  76
1720808113,676:   -134  77  76
1720808113,676:   -162  77  76
1720808113,676:   -123  77  76
1720808113,676:    -83  77  76
1720808113,676:   -101  77  76
1720808113,676:   -152  77  76
1720808113,676:   -161  77  76
1720808113,676:   -110  77  76
1720808113,676:    -65  77  76
1720808113,676:    -90  77  76
1720808113,676:   -160  77  76
1720808113,676:   -193  77  76
1720808113,676:   -155  77  76
1720808113,676:   -103  77  76
1720808113,676:   -105  77  76
1720808113,676:   -152  77  76
1720808113,676:   -172  77  76
1720808113,676:   -126  77  76
1720808113,676:    -64  77  76
1720808113,706:    -61  77  76
1720808113,706:   -118  77  76
1720808113,706:   -163  77  76
1720808113,706:   -143  77  76
1720808113,706:    -91  77  76
1720808113,706:    -77  77  76
1720808113,706:   -114  77  76
1720808113,706:   -139  77  76
1720808113,706:   -101  77  76
1720808113,706:    -32  77  76
1720808113,706:    -15  77  76
1720808113,706:    -71  77  76
1720808113,706:   -130  77  76
1720808113,706:   -118  77  76
1720808113,706:    -53  77  76
1720808113,706:    -22  77  76
1720808113,706:    -67  77  76
1720808113,706:   -128  77  76
1720808113,706:   -122  77  76
1720808113,706:    -51  77  76
1720808113,706:     -1  77  76
1720808113,706:    -33  77  76
1720808113,738:   -101  77  76
1720808113,738:   -120  77  76
1720808113,738:    -74  77  76
1720808113,738:    -31  77  76
1720808113,738:    -47  77  76
1720808113,738:    -89  77  76
1720808113,738:    -81  77  76
1720808113,738:    -17  77  76
1720808113,738:     27  77  76
1720808113,738:     -5  77  76
1720808113,738:    -75  77  76
1720808113,738:    -95  77  76
1720808113,738:    -46  77  76
1720808113,738:      6  77  76
1720808113,738:      0  77  76
1720808113,738:    -39  77  76
1720808113,738:    -35  77  76
1720808113,738:     29  77  76
1720808113,738:     86  77  76
1720808113,738:     74  77  76
1720808113,738:     20  77  76
1720808113,738:      3  77  76
1720808113,738:     44  77  76
1720808113,768:     83  77  76
1720808113,768:     59  77  76
1720808113,768:      1  77  76
1720808113,768:    -12  77  76
1720808113,768:     43  77  76
1720808113,768:     96  77  76
1720808113,768:     74  77  76
1720808113,768:      2  77  76
1720808113,768:    -28  77  76
1720808113,768:     27  77  76
1720808113,768:    109  77  76
1720808113,768:    138  77  76
1720808113,768:    115  77  76
1720808113,768:    123  77  76
1720808113,768:    201  77  76
1720808113,799:    290  77  76
1720808113,799:    300  77  76
1720808113,799:    226  77  76
1720808113,799:    155  77  76
1720808113,799:    154  77  76
1720808113,799:    185  77  76
1720808113,799:    166  77  76
1720808113,799:     84  77  76
1720808113,799:     19  77  76
1720808113,799:     36  77  76
1720808113,799:     96  77  76
1720808113,799:    100  77  76
1720808113,799:     15  77  76
1720808113,799:    -80  77  76
1720808113,799:    -99  77  76
1720808113,799:    -54  77  76
1720808113,799:    -35  77  76
1720808113,799:    -86  77  76
1720808113,799:   -148  77  76
1720808113,799:   -139  77  76
1720808113,799:    -67  77  76
1720808113,799:    -22  77  76
1720808113,830:    -59  77  76
1720808113,830:   -124  77  76
1720808113,830:   -129  77  76
1720808113,830:    -68  77  76
1720808113,830:    -21  77  76
1720808113,830:    -46  77  76
1720808113,830:   -103  77  76
1720808113,830:   -107  77  76
1720808113,830:    -49  77  76
1720808113,830:     -5  77  76
1720808113,830:    -40  77  76
1720808113,830:   -113  77  76
1720808113,830:   -138  77  76
1720808113,830:    -91  77  76
1720808113,830:    -42  77  76
1720808113,830:    -57  77  76
1720808113,830:   -107  77  76
1720808113,830:   -110  77  76
1720808113,830:    -40  77  76
1720808113,830:     32  77  76
1720808113,830:     23  77  76
1720808113,830:    -53  77  76
1720808113,830:   -108  77  76
1720808113,862:    -91  77  76
1720808113,862:    -45  77  76
1720808113,862:    -44  77  76
1720808113,862:    -88  77  76
1720808113,862:   -109  77  76
1720808113,862:    -63  77  76
1720808113,862:      3  77  76
1720808113,862:     12  77  76
1720808113,862:    -42  77  76
1720808113,862:    -76  77  76
1720808113,862:    -33  77  76
1720808113,862:     53  77  76
1720808113,862:     96  77  76
1720808113,862:     58  77  76
1720808113,862:     -5  77  76
1720808113,862:    -25  77  76
1720808113,862:     -6  77  76
1720808113,862:    -13  77  76
1720808113,862:    -95  77  76
1720808113,862:   -221  77  76
1720808113,862:   -321  77  76
1720808113,862:   -362  77  76
1720808113,894:   -348  77  76
1720808113,894:   -261  77  76
1720808113,894:    -38  77  76
1720808113,894:    401  77  76
1720808113,894:   1117  77  76
1720808113,894:   2135  77  76
1720808113,894:   3409  77  76
1720808113,894:   4779  77  76
1720808113,894:   6004  77  76
1720808113,894:   6909  77  76
1720808113,894:   7528  77  76
1720808113,894:   8009  77  76
1720808113,894:   8347  77  76
1720808113,894:   8235  77  76
1720808113,894:   7305  77  76
1720808113,894:   5560  77  76
1720808113,894:   3507  77  76
1720808113,894:   1786  77  76
1720808113,894:    639  77  76
1720808113,894:   -197  77  76
1720808113,894:  -1078  77  76
1720808113,894:  -2014  77  76
1720808113,894:  -2659  77  76
1720808113,926:  -2721  82  78
1720808113,926:  -2283  82  78
1720808113,926:  -1716  82  78
1720808113,926:  -1333  82  78
1720808113,926:  -1182  82  78
1720808113,926:  -1133  82  78
1720808113,926:  -1091  82  78
1720808113,926:  -1071  82  78
1720808113,926:  -1097  82  78
1720808113,926:  -1131  82  78
1720808113,926:  -1103  82  78
1720808113,926:  -1022  82  78
1720808113,926:   -981  82  78
1720808113,926:  -1047  82  78
1720808113,926:  -1167  82  78
1720808113,926:  -1224  82  78
1720808113,926:  -1167  82  78
1720808113,926:  -1068  82  78
1720808113,926:  -1041  82  78
1720808113,926:  -1101  82  78
1720808113,926:  -1154  82  78
1720808113,926:  -1122  82  78
1720808113,926:  -1037  82  78
1720808113,926:   -984  82  78
1720808113,926:   -982  82  78
1720808113,926:   -957  82  78
1720808113,926:   -858  82  78
1720808113,958:   -740  82  78
1720808113,958:   -701  82  78
1720808113,958:   -759  82  78
1720808113,958:   -818  82  78
1720808113,958:   -789  82  78
1720808113,958:   -699  82  78
1720808113,958:   -647  82  78
1720808113,958:   -673  82  78
1720808113,958:   -706  82  78
1720808113,958:   -661  82  78
1720808113,958:   -555  82  78
1720808113,958:   -487  82  78
1720808113,958:   -511  82  78
1720808113,958:   -567  82  78
1720808113,958:   -564  82  78
1720808113,958:   -496  82  78
1720808113,958:   -441  82  78
1720808113,958:   -457  82  78
1720808113,958:   -498  82  78
1720808113,958:   -482  82  78
1720808113,958:   -404  82  78
1720808113,958:   -341  82  78
1720808113,958:   -347  82  78
1720808113,990:   -380  82  78
1720808113,990:   -358  82  78
1720808113,990:   -276  82  78
1720808113,990:   -218  82  78
1720808113,990:   -247  82  78
1720808113,990:   -318  82  78
1720808113,990:   -337  82  78
1720808113,990:   -276  82  78
1720808113,990:   -208  82  78
1720808113,990:   -204  82  78
1720808113,990:   -242  82  78
1720808113,990:   -241  82  78
1720808113,990:   -178  82  78
1720808113,990:   -121  82  78
1720808113,990:   -139  82  78
1720808113,990:   -207  82  78
1720808113,990:   -233  82  78
1720808113,990:   -178  82  78
1720808113,990:   -107  82  78
1720808113,990:    -99  82  78
1720808113,990:   -142  82  78
1720808113,990:   -153  82  78
1720808114,022:    -94  82  78
1720808114,022:    -23  82  78
1720808114,022:    -28  82  78
1720808114,022:   -105  82  78
1720808114,022:   -161  82  78
1720808114,022:   -138  82  78
1720808114,022:    -76  82  78
1720808114,022:    -59  82  78
1720808114,022:   -103  82  78
1720808114,022:   -133  82  78
1720808114,022:    -93  82  78
1720808114,022:    -25  82  78
1720808114,022:    -15  82  78
1720808114,022:    -81  82  78
1720808114,022:   -145  82  78
1720808114,022:   -138  82  78
1720808114,022:    -83  82  78
1720808114,022:    -66  82  78
1720808114,022:   -118  82  78
1720808114,022:   -176  82  78
1720808114,022:   -171  82  78
1720808114,022:   -122  82  78
1720808114,022:   -112  82  78
1720808114,054:   -176  82  78
1720808114,054:   -248  82  78
1720808114,054:   -251  82  78
1720808114,054:   -194  82  78
1720808114,054:   -158  82  78
1720808114,054:   -189  82  78
1720808114,054:   -234  82  78
1720808114,054:   -213  82  78
1720808114,054:   -133  82  78
1720808114,054:    -81  82  78
1720808114,054:   -112  82  78
1720808114,054:   -172  82  78
1720808114,054:   -168  82  78
1720808114,054:    -84  82  78
1720808114,054:     -2  82  78
1720808114,054:      7  82  78
1720808114,054:    -24  82  78
1720808114,054:    -12  82  78
1720808114,054:     62  82  78
1720808114,054:    121  82  78
1720808114,054:     97  82  78
1720808114,054:     23  82  78
1720808114,086:     -4  82  78
1720808114,086:     45  82  78
1720808114,086:    103  82  78
1720808114,086:     94  82  78
1720808114,086:     40  82  78
1720808114,086:     34  82  78
1720808114,086:    109  82  78
1720808114,086:    191  82  78
1720808114,086:    185  82  78
1720808114,086:    102  82  78
1720808114,086:     41  82  78
1720808114,086:     65  82  78
1720808114,086:    124  82  78
1720808114,086:    133  82  78
1720808114,086:     86  82  78
1720808114,086:     63  82  78
1720808114,086:    115  82  78
1720808114,086:    188  82  78
1720808114,086:    188  82  78
1720808114,086:    111  82  78
1720808114,086:     52  82  78
1720808114,086:     79  82  78
1720808114,086:    148  82  78
1720808114,116:    161  82  78
1720808114,116:     99  82  78
1720808114,116:     51  82  78
1720808114,116:     92  82  78
1720808114,116:    182  82  78
1720808114,116:    207  82  78
1720808114,116:    131  82  78
1720808114,116:     42  82  78
1720808114,116:     38  82  78
1720808114,116:    106  82  78
1720808114,116:    143  82  78
1720808114,116:    100  82  78
1720808114,116:     45  82  78
1720808114,116:     69  82  78
1720808114,116:    155  82  78
1720808114,146:    200  82  78
1720808114,146:    145  82  78
1720808114,146:     60  82  78
1720808114,146:     46  82  78
1720808114,146:    110  82  78
1720808114,146:    159  82  78
1720808114,146:    128  82  78
1720808114,146:     68  82  78
1720808114,146:     75  82  78
1720808114,146:    152  82  78
1720808114,146:    202  82  78
1720808114,146:    153  82  78
1720808114,146:     59  82  78
1720808114,146:     26  82  78
1720808114,146:     80  82  78
1720808114,176:    135  82  78
1720808114,176:    115  82  78
1720808114,176:     56  82  78
1720808114,176:     57  82  78
1720808114,176:    140  82  78
1720808114,176:    216  82  78
1720808114,176:    193  82  78
1720808114,176:    101  82  78
1720808114,176:     55  82  78
1720808114,176:    100  82  78
1720808114,176:    166  82  78
1720808114,176:    159  82  78
1720808114,176:     93  82  78
1720808114,176:     67  82  78
1720808114,176:    125  82  78
1720808114,206:    194  82  78
1720808114,206:    177  82  78
1720808114,206:     84  82  78
1720808114,206:     25  82  78
1720808114,206:     61  82  78
1720808114,206:    132  82  78
1720808114,206:    137  82  78
1720808114,206:     70  82  78
1720808114,206:     28  82  78
1720808114,206:     75  82  78
1720808114,206:    154  82  78
1720808114,206:    160  82  78
1720808114,206:     80  82  78
1720808114,206:     12  82  78
1720808114,206:     35  82  78
1720808114,238:    110  82  78
1720808114,238:    134  82  78
1720808114,238:     82  82  78
1720808114,238:     36  82  78
1720808114,238:     71  82  78
1720808114,238:    148  82  78
1720808114,238:    160  82  78
1720808114,238:     75  82  78
1720808114,238:    -16  82  78
1720808114,238:    -18  82  78
1720808114,238:     49  82  78
1720808114,238:     80  82  78
1720808114,238:     29  82  78
1720808114,238:    -32  82  78
1720808114,238:    -14  82  78
1720808114,268:     65  82  78
1720808114,268:     95  82  78
1720808114,268:     25  82  78
1720808114,268:    -68  82  78
1720808114,268:    -73  82  78
1720808114,268:      8  82  78
1720808114,268:     69  82  78
1720808114,268:     37  82  78
1720808114,268:    -30  82  78
1720808114,268:    -29  82  78
1720808114,268:     49  82  78
1720808114,268:    103  82  78
1720808114,268:     54  82  78
1720808114,268:    -45  82  78
1720808114,268:    -78  82  78
1720808114,268:    -17  82  78
1720808114,268:     50  82  78
1720808114,268:     37  82  78
1720808114,268:    -28  82  78
1720808114,268:    -43  82  78
1720808114,268:     22  82  78
1720808114,268:     88  82  78
1720808114,300:     67  82  78
1720808114,300:    -12  82  78
1720808114,300:    -48  82  78
1720808114,300:      3  82  78
1720808114,300:     72  82  78
1720808114,300:     71  82  78
1720808114,300:     14  82  78
1720808114,300:     -7  82  78
1720808114,300:     48  82  78
1720808114,300:    109  82  78
1720808114,300:     84  82  78
1720808114,300:    -12  82  78
1720808114,300:    -72  82  78
1720808114,300:    -33  82  78
1720808114,300:     45  82  78
1720808114,330:     61  82  78
1720808114,330:      2  82  78
1720808114,330:    -43  82  78
1720808114,330:     -6  82  78
1720808114,330:     66  82  78
1720808114,330:     74  82  78
1720808114,330:     -2  82  78
1720808114,330:    -72  82  78
1720808114,330:    -51  82  78
1720808114,330:     30  82  78
1720808114,330:     72  82  78
1720808114,330:     37  82  78
1720808114,330:     -6  82  78
1720808114,330:     19  82  78
1720808114,330:     92  82  78
1720808114,361:    120  82  78
1720808114,361:     67  82  78
1720808114,361:      0  82  78
1720808114,361:      6  82  78
1720808114,361:     72  82  78
1720808114,361:    108  82  78
1720808114,361:     65  82  78
1720808114,361:     -1  82  78
1720808114,361:     -6  82  78
1720808114,361:     51  82  78
1720808114,361:     85  82  78
1720808114,361:     48  82  78
1720808114,361:     -8  82  78
1720808114,361:      8  82  78
1720808114,361:    101  82  78
1720808114,391:    189  82  78
1720808114,391:    204  82  78
1720808114,391:    178  82  78
1720808114,391:    192  82  78
1720808114,391:    261  82  78
1720808114,391:    310  82  78
1720808114,391:    272  82  78
1720808114,391:    180  82  78
1720808114,421:    130  82  78
1720808114,421:    160  82  78
1720808114,421:    210  82  78
1720808114,421:    205  82  78
1720808114,421:    151  82  78
1720808114,421:    117  82  78
1720808114,421:    141  82  78
1720808114,421:    172  82  78
1720808114,421:    143  82  78
1720808114,421:     61  82  78
1720808114,421:      3  82  78
1720808114,421:     11  82  78
1720808114,421:     42  82  78
1720808114,421:     28  82  78
1720808114,421:    -34  82  78
1720808114,421:    -75  82  78
1720808114,421:    -52  82  78
1720808114,421:     -4  82  78
1720808114,421:     -7  82  78
1720808114,421:    -66  82  78
1720808114,421:   -110  82  78
1720808114,421:    -85  82  78
1720808114,451:    -25  82  78
1720808114,451:     -7  82  78
1720808114,451:    -49  82  78
1720808114,451:    -86  82  78
1720808114,451:    -60  82  78
1720808114,451:     -3  82  78
1720808114,451:      4  82  78
1720808114,451:    -60  82  78
1720808114,451:   -118  82  78
1720808114,451:    -98  82  78
1720808114,451:    -21  82  78
1720808114,451:     25  82  78
1720808114,451:      1  82  78
1720808114,451:    -36  82  78
1720808114,451:    -12  82  78
1720808114,482:     56  82  78
1720808114,482:     81  82  78
1720808114,482:     21  82  78
1720808114,482:    -58  82  78
1720808114,482:    -62  82  78
1720808114,482:      7  82  78
1720808114,482:     60  82  78
1720808114,482:     35  82  78
1720808114,482:    -22  82  78
1720808114,482:    -20  82  78
1720808114,482:     49  82  78
1720808114,482:    102  82  78
1720808114,482:     77  82  78
1720808114,482:     13  82  78
1720808114,482:      6  82  78
1720808114,545:     81  82  78
1720808114,545:    154  82  78
1720808114,545:    132  82  78
1720808114,545:     31  82  78
1720808114,545:    -43  82  78
1720808114,545:    -36  82  78
1720808114,545:    -23  82  78
1720808114,545:   -121  82  78
1720808114,545:   -334  82  78
1720808114,545:   -534  82  78
1720808114,545:   -591  82  78
1720808114,545:   -477  82  78
1720808114,545:   -237  82  78
1720808114,545:    158  82  78
1720808114,545:    850  82  78
1720808114,545:   1961  82  78
1720808114,545:   3416  82  78
1720808114,545:   4943  82  78
1720808114,545:   6270  82  78
1720808114,545:   7311  82  78
1720808114,545:   8155  82  78
1720808114,545:   8866  82  78
1720808114,545:   9307  82  78
1720808114,625:   9178  82  79
1720808114,625:   8267  82  79
1720808114,625:   6670  82  79
1720808114,625:   4784  82  79
1720808114,625:   3054  82  79
1720808114,625:   1693  82  79
1720808114,625:    626  82  79
1720808114,625:   -337  82  79
1720808114,625:  -1245  82  79
1720808114,625:  -1935  82  79
1720808114,625:  -2194  82  79
1720808114,625:  -1983  82  79
1720808114,625:  -1507  82  79
1720808114,625:  -1081  82  79
1720808114,625:   -904  82  79
1720808114,625:   -956  82  79
1720808114,625:  -1072  82  79
1720808114,625:  -1124  82  79
