timestamp: ADC HeartRate4sAverage HeartRate30sAverage
1720799215,442:      4  90  94
1720799215,442:    -36  90  94
1720799215,442:    -46  90  94
1720799215,442:     -8  90  94
1720799215,442:     30  90  94
1720799215,442:     14  90  94
1720799215,442:    -38  90  94
1720799215,442:    -60  90  94
1720799215,472:    -25  90  94
1720799215,472:     26  90  94
1720799215,472:     39  90  94
1720799215,472:     15  90  94
1720799215,472:      8  90  94
1720799215,472:     40  90  94
1720799215,472:     73  90  94
1720799215,472:     59  90  94
1720799215,472:      6  90  94
1720799215,472:    -25  90  94
1720799215,472:     -2  90  94
1720799215,472:     38  90  94
1720799215,472:     43  90  94
1720799215,472:     12  90  94
1720799215,472:     -2  90  94
1720799215,503:     35  90  94
1720799215,503:     87  90  94
1720799215,503:     93  90  94
1720799215,503:     50  90  94
1720799215,503:     17  90  94
1720799215,503:     35  90  94
1720799215,503:     77  90  94
1720799215,503:     86  90  94
1720799215,503:     52  90  94
1720799215,503:     28  90  94
1720799215,503:     55  90  94
1720799215,503:    102  90  94
1720799215,503:    103  90  94
1720799215,503:     47  90  94
1720799215,503:     -1  90  94
1720799215,533:     14  90  94
1720799215,533:     69  90  94
1720799215,533:     93  90  94
1720799215,533:     60  90  94
1720799215,533:     26  90  94
1720799215,533:     52  90  94
1720799215,533:    117  90  94
1720799215,533:    143  90  94
1720799215,533:     90  90  94
1720799215,533:     14  90  94
1720799215,533:     -8  90  94
1720799215,533:     33  90  94
1720799215,533:     72  90  94
1720799215,533:     57  90  94
1720799215,533:     15  90  94
1720799215,533:      9  90  94
1720799215,533:     54  90  94
1720799215,533:     91  90  94
1720799215,533:     70  90  94
1720799215,533:     14  90  94
1720799215,533:    -12  90  94
1720799215,533:     16  90  94
1720799215,564:     48  90  94
1720799215,564:     34  90  94
1720799215,564:    -11  90  94
1720799215,564:    -26  90  94
1720799215,564:     10  90  94
1720799215,564:     50  90  94
1720799215,564:     37  90  94
1720799215,564:    -16  90  94
1720799215,564:    -42  90  94
1720799215,564:    -14  90  94
1720799215,564:     26  90  94
1720799215,564:     20  90  94
1720799215,564:    -21  90  94
1720799215,564:    -34  90  94
1720799215,564:     10  90  94
1720799215,596:     62  90  94
1720799215,596:     53  90  94
1720799215,596:     -9  90  94
1720799215,596:    -46  90  94
1720799215,596:    -12  90  94
1720799215,596:     48  90  94
1720799215,596:     59  90  94
1720799215,596:     13  90  94
1720799215,596:    -19  90  94
1720799215,596:     15  90  94
1720799215,596:     79  90  94
1720799215,596:     94  90  94
1720799215,596:     41  90  94
1720799215,596:    -13  90  94
1720799215,596:     -4  90  94
1720799215,628:     46  90  94
1720799215,628:     63  90  94
1720799215,628:     22  90  94
1720799215,628:    -22  90  94
1720799215,628:    -10  90  94
1720799215,628:     41  90  94
1720799215,628:     62  90  94
1720799215,628:     21  90  94
1720799215,660:    -30  90  94
1720799215,660:    -28  90  94
1720799215,660:     21  90  94
1720799215,660:     50  90  94
1720799215,660:     26  90  94
1720799215,660:     -9  90  94
1720799215,660:      6  90  94
1720799215,660:     63  90  94
1720799215,660:     92  90  94
1720799215,660:     52  90  94
1720799215,660:     -9  90  94
1720799215,660:    -15  90  94
1720799215,660:     42  90  94
1720799215,660:     98  90  94
1720799215,660:     95  90  94
1720799215,660:     57  90  94
1720799215,660:     54  90  94
1720799215,660:    103  90  94
1720799215,660:    150  90  94
1720799215,660:    137  90  94
1720799215,660:     81  90  94
1720799215,660:     50  90  94
1720799215,689:     72  90  94
1720799215,689:    104  90  94
1720799215,689:     88  90  94
1720799215,689:     38  90  94
1720799215,689:     22  90  94
1720799215,689:     72  90  94
1720799215,689:    145  90  94
1720799215,689:    169  90  94
1720799215,689:    143  90  94
1720799215,689:    133  90  94
1720799215,689:    186  90  94
1720799215,689:    268  90  94
1720799215,689:    309  90  94
1720799215,689:    289  90  94
1720799215,689:    264  90  94
1720799215,719:    281  90  94
1720799215,719:    315  90  94
1720799215,719:    302  90  94
1720799215,719:    229  90  94
1720799215,719:    158  90  94
1720799215,719:    150  90  94
1720799215,719:    187  90  94
1720799215,719:    199  90  94
1720799215,719:    158  90  94
1720799215,719:    109  90  94
1720799215,719:    102  90  94
1720799215,719:    124  90  94
1720799215,719:    110  90  94
1720799215,719:     37  90  94
1720799215,719:    -44  90  94
1720799215,750:    -74  90  94
1720799215,750:    -64  90  94
1720799215,750:    -71  90  94
1720799215,750:   -121  90  94
1720799215,750:   -169  90  94
1720799215,750:   -159  90  94
1720799215,750:   -103  90  94
1720799215,750:    -68  90  94
1720799215,750:    -92  90  94
1720799215,750:   -136  90  94
1720799215,750:   -142  90  94
1720799215,750:   -104  90  94
1720799215,750:    -76  90  94
1720799215,750:    -91  90  94
1720799215,750:   -115  90  94
1720799215,780:   -100  90  94
1720799215,780:    -54  90  94
1720799215,780:    -37  90  94
1720799215,780:    -82  90  94
1720799215,780:   -140  90  94
1720799215,780:   -142  90  94
1720799215,780:    -87  90  94
1720799215,780:    -45  90  94
1720799215,780:    -66  90  94
1720799215,780:   -114  90  94
1720799215,780:   -112  90  94
1720799215,780:    -48  90  94
1720799215,780:      9  90  94
1720799215,780:    -10  90  94
1720799215,780:    -78  90  94
1720799215,780:   -112  90  94
1720799215,780:    -77  90  94
1720799215,780:    -24  90  94
1720799215,780:    -12  90  94
1720799215,780:    -29  90  94
1720799215,780:     -8  90  94
1720799215,780:     73  90  94
1720799215,780:    142  90  94
1720799215,811:    112  90  94
1720799215,811:      2  90  94
1720799215,811:    -86  90  94
1720799215,811:    -90  90  94
1720799215,811:    -80  90  94
1720799215,811:   -164  90  94
1720799215,811:   -349  90  94
1720799215,843:   -511  90  94
1720799215,843:   -518  90  94
1720799215,843:   -354  90  94
1720799215,843:    -72  90  94
1720799215,843:    364  90  94
1720799215,843:   1127  90  94
1720799215,843:   2347  90  94
1720799215,843:   3906  90  94
1720799215,843:   5451  90  94
1720799215,843:   6681  90  94
1720799215,843:   7587  90  94
1720799215,843:   8358  90  94
1720799215,843:   9040  90  94
1720799215,843:   9328  90  94
1720799215,843:   8781  90  94
1720799215,875:   7271  87  92
1720799215,875:   5192  87  92
1720799215,875:   3173  87  92
1720799215,875:   1607  87  92
1720799215,875:    434  87  92
1720799215,875:   -620  87  92
1720799215,875:  -1661  87  92
1720799215,875:  -2501  87  92
1720799215,875:  -2870  87  92
1720799215,875:  -2692  87  92
1720799215,875:  -2154  87  92
1720799215,875:  -1564  87  92
1720799215,875:  -1157  87  92
1720799215,875:  -1008  87  92
1720799215,875:  -1049  87  92
1720799215,875:  -1144  87  92
1720799215,875:  -1196  87  92
1720799215,875:  -1204  87  92
1720799215,875:  -1235  87  92
1720799215,875:  -1332  87  92
1720799215,875:  -1457  87  92
1720799215,875:  -1527  87  92
1720799215,875:  -1508  87  92
1720799215,907:  -1459  87  92
1720799215,907:  -1446  87  92
1720799215,907:  -1459  87  92
1720799215,907:  -1438  87  92
1720799215,907:  -1373  87  92
1720799215,907:  -1324  87  92
1720799215,907:  -1346  87  92
1720799215,907:  -1404  87  92
1720799215,907:  -1406  87  92
1720799215,907:  -1307  87  92
1720799215,907:  -1164  87  92
1720799215,907:  -1068  87  92
1720799215,907:  -1046  87  92
1720799215,907:  -1044  87  92
1720799215,907:  -1018  87  92
1720799215,939:   -984  87  92
1720799215,939:   -987  87  92
1720799215,939:  -1024  87  92
1720799215,939:  -1033  87  92
1720799215,939:   -973  87  92
1720799215,939:   -874  87  92
1720799215,939:   -806  87  92
1720799215,939:   -793  87  92
1720799215,939:   -792  87  92
1720799215,939:   -758  87  92
1720799215,939:   -709  87  92
1720799215,939:   -695  87  92
1720799215,939:   -725  87  92
1720799215,939:   -744  87  92
1720799215,939:   -704  87  92
1720799215,971:   -627  87  92
1720799215,971:   -580  87  92
1720799215,971:   -592  87  92
1720799215,971:   -610  87  92
1720799215,971:   -576  87  92
1720799215,971:   -503  87  92
1720799215,971:   -458  87  92
1720799215,971:   -478  87  92
1720799215,971:   -515  87  92
1720799215,971:   -501  87  92
1720799215,971:   -438  87  92
1720799215,971:   -387  87  92
1720799215,971:   -391  87  92
1720799215,971:   -413  87  92
1720799215,971:   -397  87  92
1720799216,003:   -340  87  92
1720799216,003:   -301  87  92
1720799216,003:   -318  87  92
1720799216,003:   -354  87  92
1720799216,003:   -344  87  92
1720799216,003:   -284  87  92
1720799216,003:   -233  87  92
1720799216,003:   -236  87  92
1720799216,003:   -262  87  92
1720799216,003:   -250  87  92
1720799216,003:   -192  87  92
1720799216,003:   -151  87  92
1720799216,003:   -175  87  92
1720799216,003:   -234  87  92
1720799216,003:   -253  87  92
1720799216,003:   -210  87  92
1720799216,003:   -161  87  92
1720799216,003:   -164  87  92
1720799216,003:   -201  87  92
1720799216,003:   -207  87  92
1720799216,003:   -161  87  92
1720799216,003:   -115  87  92
1720799216,035:   -130  87  92
1720799216,035:   -191  87  92
1720799216,035:   -227  87  92
1720799216,035:   -204  87  92
1720799216,035:   -165  87  92
1720799216,035:   -169  87  92
1720799216,035:   -210  87  92
1720799216,035:   -228  87  92
1720799216,067:   -193  87  92
1720799216,067:   -148  87  92
1720799216,067:   -154  87  92
1720799216,067:   -203  87  92
1720799216,067:   -233  87  92
1720799216,067:   -203  87  92
1720799216,067:   -148  87  92
1720799216,067:   -132  87  92
1720799216,067:   -162  87  92
1720799216,067:   -181  87  92
1720799216,067:   -146  87  92
1720799216,067:    -84  87  92
1720799216,067:    -61  87  92
1720799216,067:   -100  87  92
1720799216,067:   -144  87  92
1720799216,097:   -135  87  92
1720799216,097:    -80  87  92
1720799216,097:    -42  87  92
1720799216,097:    -54  87  92
1720799216,097:    -79  87  92
1720799216,097:    -61  87  92
1720799216,097:     -2  87  92
1720799216,097:     38  87  92
1720799216,097:     20  87  92
1720799216,097:    -22  87  92
1720799216,097:    -25  87  92
1720799216,097:     19  87  92
1720799216,097:     55  87  92
1720799216,097:     43  87  92
1720799216,097:     11  87  92
1720799216,097:     17  87  92
1720799216,097:     64  87  92
1720799216,097:     95  87  92
1720799216,097:     69  87  92
1720799216,097:     20  87  92
1720799216,097:     16  87  92
1720799216,097:     65  87  92
1720799216,127:    108  87  92
1720799216,127:     95  87  92
1720799216,127:     52  87  92
1720799216,127:     45  87  92
1720799216,127:     87  87  92
1720799216,127:    121  87  92
1720799216,127:     95  87  92
1720799216,127:     33  87  92
1720799216,127:      8  87  92
1720799216,127:     41  87  92
1720799216,127:     79  87  92
1720799216,127:     66  87  92
1720799216,127:     23  87  92
1720799216,127:     18  87  92
1720799216,127:     75  87  92
1720799216,157:    134  87  92
1720799216,157:    128  87  92
1720799216,157:     65  87  92
1720799216,157:     20  87  92
1720799216,157:     41  87  92
1720799216,157:     93  87  92
1720799216,157:    111  87  92
1720799216,157:     85  87  92
1720799216,157:     69  87  92
1720799216,157:     99  87  92
1720799216,157:    141  87  92
1720799216,157:    139  87  92
1720799216,157:     90  87  92
1720799216,157:     58  87  92
1720799216,157:     85  87  92
1720799216,189:    138  87  92
1720799216,189:    150  87  92
1720799216,189:    109  87  92
1720799216,189:     70  87  92
1720799216,189:     84  87  92
1720799216,189:    129  87  92
1720799216,189:    143  87  92
1720799216,189:    106  87  92
1720799216,189:     67  87  92
1720799216,189:     75  87  92
1720799216,189:    117  87  92
1720799216,189:    139  87  92
1720799216,189:    121  87  92
1720799216,189:    104  87  92
1720799216,189:    130  87  92
1720799216,219:    178  87  92
1720799216,219:    188  87  92
1720799216,219:    138  87  92
1720799216,219:     75  87  92
1720799216,219:     62  87  92
1720799216,219:     95  87  92
1720799216,219:    115  87  92
1720799216,219:     86  87  92
1720799216,219:     44  87  92
1720799216,219:     45  87  92
1720799216,219:     88  87  92
1720799216,219:    114  87  92
1720799216,219:     81  87  92
1720799216,219:     24  87  92
1720799216,219:      9  87  92
1720799216,249:     48  87  92
1720799216,249:     84  87  92
1720799216,249:     70  87  92
1720799216,249:     28  87  92
1720799216,249:     23  87  92
1720799216,249:     70  87  92
1720799216,249:    114  87  92
1720799216,249:     97  87  92
1720799216,249:     38  87  92
1720799216,249:      6  87  92
1720799216,249:     32  87  92
1720799216,249:     71  87  92
1720799216,249:     66  87  92
1720799216,249:     23  87  92
1720799216,249:      3  87  92
1720799216,281:     35  87  92
1720799216,281:     80  87  92
1720799216,281:     78  87  92
1720799216,281:     29  87  92
1720799216,281:     -8  87  92
1720799216,281:      6  87  92
1720799216,281:     43  87  92
1720799216,281:     48  87  92
1720799216,281:     15  87  92
1720799216,281:     -7  87  92
1720799216,281:     18  87  92
1720799216,281:     60  87  92
1720799216,281:     61  87  92
1720799216,281:     13  87  92
1720799216,281:    -30  87  92
1720799216,313:    -24  87  92
1720799216,313:      9  87  92
1720799216,313:     17  87  92
1720799216,313:    -13  87  92
1720799216,313:    -34  87  92
1720799216,313:     -4  87  92
1720799216,313:     49  87  92
1720799216,313:     62  87  92
1720799216,313:     18  87  92
1720799216,313:    -30  87  92
1720799216,313:    -21  87  92
1720799216,313:     33  87  92
1720799216,313:     65  87  92
1720799216,313:     40  87  92
1720799216,313:     -1  87  92
1720799216,345:      4  87  92
1720799216,345:     53  87  92
1720799216,345:     83  87  92
1720799216,345:     50  87  92
1720799216,345:     -9  87  92
1720799216,345:    -27  87  92
1720799216,345:      9  87  92
1720799216,345:     44  87  92
1720799216,345:     29  87  92
1720799216,345:    -12  87  92
1720799216,345:    -17  87  92
1720799216,345:     28  87  92
1720799216,345:     70  87  92
1720799216,345:     57  87  92
1720799216,345:     10  87  92
1720799216,345:     -6  87  92
1720799216,345:     29  87  92
1720799216,345:     72  87  92
1720799216,345:     73  87  92
1720799216,345:     46  87  92
1720799216,345:     44  87  92
1720799216,345:     81  87  92
1720799216,345:    115  87  92
1720799216,377:    102  87  92
1720799216,377:     57  87  92
1720799216,377:     34  87  92
1720799216,377:     52  87  92
1720799216,377:     75  87  92
1720799216,377:     60  87  92
1720799216,377:     20  87  92
1720799216,377:      7  87  92
1720799216,377:     38  87  92
1720799216,377:     74  87  92
1720799216,377:     70  87  92
1720799216,377:     37  87  92
1720799216,377:     34  87  92
1720799216,377:     88  87  92
1720799216,377:    162  87  92
1720799216,409:    198  87  92
1720799216,409:    191  87  92
1720799216,409:    192  87  92
1720799216,409:    234  87  92
1720799216,409:    284  87  92
1720799216,409:    285  87  92
1720799216,409:    230  87  92
1720799216,409:    180  87  92
1720799216,409:    183  87  92
1720799216,409:    218  87  92
1720799216,409:    220  87  92
1720799216,409:    174  87  92
1720799216,409:    132  87  92
1720799216,409:    145  87  92
1720799216,409:    187  87  92
1720799216,441:    186  87  92
1720799216,441:    113  87  92
1720799216,441:     28  87  92
1720799216,441:     -3  87  92
1720799216,441:     14  87  92
1720799216,441:     11  87  92
1720799216,441:    -45  87  92
1720799216,441:   -106  87  92
1720799216,441:   -108  87  92
1720799216,441:    -59  87  92
1720799216,441:    -33  87  92
1720799216,441:    -73  87  92
1720799216,441:   -134  87  92
1720799216,441:   -141  87  92
1720799216,441:    -88  87  92
1720799216,441:    -44  87  92
1720799216,441:    -61  87  92
1720799216,441:   -105  87  92
1720799216,441:   -103  87  92
1720799216,441:    -42  87  92
1720799216,472:     12  87  92
1720799216,472:     -2  87  92
1720799216,472:    -60  87  92
1720799216,472:    -92  87  92
1720799216,472:    -64  87  92
1720799216,472:    -24  87  92
1720799216,472:    -26  87  92
1720799216,472:    -63  87  92
1720799216,472:    -76  87  92
1720799216,472:    -40  87  92
1720799216,472:      6  87  92
1720799216,472:      7  87  92
1720799216,472:    -29  87  92
1720799216,472:    -47  87  92
1720799216,472:    -14  87  92
1720799216,502:     39  87  92
1720799216,502:     55  87  92
1720799216,502:     29  87  92
1720799216,502:     17  87  92
1720799216,502:     57  87  92
1720799216,502:    125  87  92
1720799216,502:    159  87  92
1720799216,533:    131  87  92
1720799216,533:     72  87  92
1720799216,533:     29  87  92
1720799216,533:     17  87  92
1720799216,533:     10  87  92
1720799216,533:    -28  87  92
1720799216,533:   -102  87  92
1720799216,533:   -198  87  92
1720799216,533:   -293  87  92
1720799216,533:   -347  87  92
1720799216,533:   -303  87  92
1720799216,533:    -90  87  92
1720799216,533:    359  87  92
1720799216,533:   1116  87  92
1720799216,533:   2215  87  92
1720799216,533:   3593  87  92
1720799216,533:   5048  87  92
1720799216,533:   6327  87  92
1720799216,533:   7301  87  92
1720799216,533:   8029  87  92
1720799216,533:   8603  87  92
1720799216,533:   8901  87  92
1720799216,533:   8570  87  92
1720799216,564:   7349  86  89
1720799216,564:   5418  86  89
1720799216,564:   3364  86  89
1720799216,564:   1736  86  89
1720799216,564:    627  86  89
1720799216,564:   -279  86  89
1720799216,564:  -1258  86  89
1720799216,564:  -2203  86  89
1720799216,564:  -2735  86  89
1720799216,564:  -2627  86  89
1720799216,564:  -2052  86  89
1720799216,564:  -1428  86  89
1720799216,564:  -1063  86  89
1720799216,564:   -975  86  89
1720799216,564:  -1000  86  89
1720799216,596:  -1016  86  89
1720799216,596:  -1032  86  89
1720799216,596:  -1099  86  89
1720799216,596:  -1205  86  89
1720799216,596:  -1279  86  89
1720799216,596:  -1294  86  89
1720799216,596:  -1290  86  89
1720799216,596:  -1313  86  89
1720799216,596:  -1353  86  89
1720799216,596:  -1352  86  89
1720799216,596:  -1288  86  89
1720799216,596:  -1219  86  89
1720799216,596:  -1219  86  89
1720799216,596:  -1291  86  89
1720799216,596:  -1354  86  89
1720799216,627:  -1344  86  89
1720799216,627:  -1276  86  89
1720799216,627:  -1208  86  89
1720799216,627:  -1161  86  89
1720799216,627:  -1098  86  89
1720799216,627:   -999  86  89
1720799216,627:   -909  86  89
1720799216,627:   -897  86  89
1720799216,627:   -960  86  89
1720799216,627:  -1018  86  89
1720799216,627:  -1002  86  89
1720799216,627:   -929  86  89
1720799216,627:   -867  86  89
1720799216,627:   -847  86  89
1720799216,627:   -828  86  89
1720799216,658:   -769  86  89
1720799216,658:   -695  86  89
1720799216,658:   -673  86  89
1720799216,658:   -717  86  89
1720799216,658:   -760  86  89
1720799216,658:   -734  86  89
1720799216,658:   -655  86  89
1720799216,658:   -599  86  89
1720799216,658:   -603  86  89
1720799216,658:   -621  86  89
1720799216,658:   -589  86  89
1720799216,658:   -517  86  89
1720799216,658:   -477  86  89
1720799216,658:   -508  86  89
1720799216,658:   -562  86  89
1720799216,690:   -567  86  89
1720799216,690:   -519  86  89
1720799216,690:   -480  86  89
1720799216,690:   -490  86  89
1720799216,690:   -510  86  89
1720799216,690:   -483  86  89
1720799216,690:   -413  86  89
1720799216,690:   -368  86  89
1720799216,690:   -390  86  89
1720799216,690:   -436  86  89
1720799216,690:   -432  86  89
1720799216,690:   -370  86  89
1720799216,690:   -313  86  89
1720799216,690:   -315  86  89
1720799216,690:   -353  86  89
1720799216,720:   -358  86  89
1720799216,720:   -311  86  89
1720799216,720:   -266  86  89
1720799216,720:   -276  86  89
1720799216,720:   -324  86  89
1720799216,720:   -343  86  89
1720799216,720:   -304  86  89
1720799216,720:   -250  86  89
1720799216,720:   -239  86  89
1720799216,720:   -268  86  89
1720799216,720:   -277  86  89
1720799216,720:   -237  86  89
1720799216,720:   -189  86  89
1720799216,720:   -193  86  89
1720799216,720:   -250  86  89
1720799216,750:   -297  86  89
1720799216,750:   -288  86  89
1720799216,750:   -250  86  89
1720799216,750:   -242  86  89
1720799216,750:   -273  86  89
1720799216,750:   -295  86  89
1720799216,750:   -269  86  89
1720799216,750:   -226  86  89
1720799216,750:   -226  86  89
1720799216,750:   -278  86  89
1720799216,750:   -321  86  89
1720799216,750:   -302  86  89
1720799216,750:   -245  86  89
1720799216,750:   -221  86  89
1720799216,750:   -256  86  89
1720799216,750:   -290  86  89
1720799216,750:   -260  86  89
1720799216,750:   -178  86  89
1720799216,750:   -125  86  89
1720799216,750:   -146  86  89
1720799216,750:   -193  86  89
1720799216,750:   -193  86  89
1720799216,780:   -134  86  89
1720799216,780:    -82  86  89
1720799216,780:    -81  86  89
1720799216,780:   -103  86  89
1720799216,780:    -86  86  89
1720799216,780:    -28  86  89
1720799216,780:      9  86  89
1720799216,780:    -16  86  89
1720799216,780:    -60  86  89
1720799216,780:    -52  86  89
1720799216,780:     13  86  89
1720799216,780:     66  86  89
1720799216,780:     53  86  89
1720799216,780:      4  86  89
1720799216,780:     -2  86  89
1720799216,812:     52  86  89
1720799216,812:    101  86  89
1720799216,812:     80  86  89
1720799216,812:     11  86  89
1720799216,812:    -25  86  89
1720799216,812:      4  86  89
1720799216,812:     47  86  89
1720799216,812:     44  86  89
1720799216,812:      3  86  89
1720799216,812:     -9  86  89
1720799216,812:     34  86  89
1720799216,812:     82  86  89
1720799216,812:     71  86  89
1720799216,812:     11  86  89
1720799216,812:    -25  86  89
1720799216,844:      2  86  89
1720799216,844:     52  86  89
1720799216,844:     54  86  89
1720799216,844:      5  86  89
1720799216,844:    -28  86  89
1720799216,844:      3  86  89
1720799216,844:     62  86  89
1720799216,844:     76  86  89
1720799216,844:     32  86  89
1720799216,844:    -10  86  89
1720799216,844:      7  86  89
1720799216,844:     60  86  89
1720799216,844:     83  86  89
1720799216,844:     56  86  89
1720799216,844:     28  86  89
1720799216,875:     47  86  89
1720799216,875:     90  86  89
1720799216,875:     94  86  89
1720799216,875:     41  86  89
1720799216,875:     -9  86  89
1720799216,875:     -1  86  89
1720799216,875:     51  86  89
1720799216,875:     79  86  89
1720799216,875:     54  86  89
1720799216,875:     21  86  89
1720799216,875:     40  86  89
1720799216,875:     98  86  89
1720799216,875:    126  86  89
1720799216,875:     86  86  89
1720799216,875:     25  86  89
1720799216,906:     11  86  89
1720799216,906:     50  86  89
1720799216,906:     81  86  89
1720799216,906:     58  86  89
1720799216,906:     13  86  89
1720799216,906:     13  86  89
1720799216,906:     65  86  89
1720799216,906:    105  86  89
1720799216,906:     79  86  89
1720799216,906:     15  86  89
1720799216,906:    -11  86  89
1720799216,906:     28  86  89
1720799216,906:     78  86  89
1720799216,906:     78  86  89
1720799216,906:     39  86  89
1720799216,936:     23  86  89
1720799216,936:     58  86  89
1720799216,936:     99  86  89
1720799216,936:     89  86  89
1720799216,936:     34  86  89
1720799216,936:     -1  86  89
1720799216,936:     18  86  89
1720799216,936:     54  86  89
1720799216,936:     51  86  89
1720799216,936:     11  86  89
1720799216,936:    -13  86  89
1720799216,936:     12  86  89
1720799216,936:     50  86  89
1720799216,936:     44  86  89
1720799216,936:     -8  86  89
1720799216,966:    -47  86  89
1720799216,966:    -28  86  89
1720799216,966:     20  86  89
1720799216,966:     41  86  89
1720799216,966:     19  86  89
1720799216,966:      1  86  89
1720799216,966:     24  86  89
1720799216,966:     67  86  89
1720799216,966:     72  86  89
1720799216,966:     28  86  89
1720799216,966:    -12  86  89
1720799216,966:     -5  86  89
1720799216,966:     30  86  89
1720799216,966:     36  86  89
1720799216,966:      1  86  89
1720799216,996:    -24  86  89
1720799216,996:      8  86  89
1720799216,996:     68  86  89
1720799216,996:     85  86  89
1720799216,996:     37  86  89
1720799216,996:    -17  86  89
1720799216,996:    -10  86  89
1720799216,996:     42  86  89
1720799216,996:     67  86  89
1720799216,996:     28  86  89
1720799216,996:    -26  86  89
1720799216,996:    -27  86  89
1720799216,996:     24  86  89
1720799216,996:     54  86  89
1720799216,996:     20  86  89
1720799217,028:    -38  86  89
1720799217,028:    -47  86  89
1720799217,028:      3  86  89
1720799217,028:     45  86  89
1720799217,028:     31  86  89
1720799217,028:     -6  86  89
1720799217,028:     -2  86  89
1720799217,028:     52  86  89
1720799217,028:     88  86  89
1720799217,028:     58  86  89
1720799217,028:     -2  86  89
1720799217,028:    -17  86  89
1720799217,028:     28  86  89
1720799217,028:     71  86  89
1720799217,028:     57  86  89
1720799217,028:     11  86  89
1720799217,028:      8  86  89
1720799217,028:     63  86  89
1720799217,028:    109  86  89
1720799217,028:     81  86  89
1720799217,028:      3  86  89
1720799217,028:    -39  86  89
1720799217,028:     -9  86  89
1720799217,060:     40  86  89
1720799217,060:     41  86  89
1720799217,060:     -2  86  89
1720799217,060:    -21  86  89
1720799217,060:     18  86  89
1720799217,060:     69  86  89
1720799217,060:     66  86  89
1720799217,092:     17  86  89
1720799217,092:     -6  86  89
1720799217,092:     33  86  89
1720799217,092:     88  86  89
1720799217,092:     85  86  89
1720799217,092:     29  86  89
1720799217,092:     -4  86  89
1720799217,092:     36  86  89
1720799217,092:     97  86  89
1720799217,092:     94  86  89
1720799217,092:     14  86  89
1720799217,092:    -58  86  89
1720799217,092:    -43  86  89
1720799217,092:     36  86  89
1720799217,092:     93  86  89
1720799217,124:     88  86  89
1720799217,124:     72  86  89
1720799217,124:    109  86  89
1720799217,124:    185  86  89
1720799217,124:    225  86  89
1720799217,124:    195  86  89
1720799217,124:    148  86  89
1720799217,124:    150  86  89
1720799217,124:    193  86  89
1720799217,124:    209  86  89
1720799217,124:    161  86  89
1720799217,124:     99  86  89
1720799217,124:     89  86  89
1720799217,124:    130  86  89
1720799217,124:    150  86  89
1720799217,124:    102  86  89
1720799217,124:     23  86  89
1720799217,124:    -18  86  89
1720799217,124:     -9  86  89
1720799217,124:     -6  86  89
1720799217,124:    -54  86  89
1720799217,124:   -126  86  89
1720799217,124:   -156  86  89
1720799217,156:   -133  86  89
1720799217,156:   -117  86  89
1720799217,156:   -157  86  89
1720799217,156:   -225  86  89
1720799217,156:   -246  86  89
1720799217,156:   -199  86  89
1720799217,156:   -144  86  89
1720799217,156:   -143  86  89
1720799217,156:   -184  86  89
1720799217,156:   -195  86  89
1720799217,156:   -149  86  89
1720799217,156:    -99  86  89
1720799217,156:   -111  86  89
1720799217,156:   -171  86  89
1720799217,156:   -200  86  89
1720799217,188:   -158  86  89
1720799217,188:    -97  86  89
1720799217,188:    -90  86  89
1720799217,188:   -135  86  89
1720799217,188:   -155  86  89
1720799217,188:   -107  86  89
1720799217,188:    -39  86  89
1720799217,188:    -33  86  89
1720799217,188:    -96  86  89
1720799217,188:   -148  86  89
1720799217,188:   -130  86  89
1720799217,188:    -76  86  89
1720799217,188:    -64  86  89
1720799217,188:   -106  86  89
1720799217,188:   -135  86  89
1720799217,220:    -98  86  89
1720799217,220:    -26  86  89
1720799217,220:      6  86  89
1720799217,220:    -20  86  89
1720799217,220:    -44  86  89
1720799217,220:    -16  86  89
1720799217,220:     24  86  89
1720799217,220:      0  86  89
1720799217,220:    -89  86  89
1720799217,220:   -156  86  89
1720799217,220:   -149  86  89
1720799217,220:   -129  86  89
1720799217,220:   -208  86  89
1720799217,220:   -394  86  89
1720799217,220:   -547  86  89
1720799217,251:   -506  86  89
1720799217,251:   -242  86  89
1720799217,251:    175  86  89
1720799217,251:    756  86  89
1720799217,251:   1644  86  89
1720799217,251:   2938  86  89
1720799217,251:   4472  86  89
1720799217,251:   5872  86  89
1720799217,251:   6883  86  89
1720799217,251:   7584  86  89
1720799217,251:   8205  86  89
1720799217,251:   8714  86  89
1720799217,251:   8695  86  89
1720799217,251:   7740  86  89
1720799217,251:   5933  86  89
1720799217,251:   3880  86  89
1720799217,251:   2196  86  89
1720799217,251:   1018  86  89
1720799217,251:     40  86  89
1720799217,251:  -1007  86  89
1720799217,251:  -2012  86  89
1720799217,251:  -2620  86  89
1720799217,283:  -2627  86  87
1720799217,283:  -2185  86  87
1720799217,283:  -1632  86  87
1720799217,283:  -1213  86  87
1720799217,283:   -995  86  87
1720799217,283:   -945  86  87
1720799217,283:  -1009  86  87
1720799217,283:  -1120  86  87
1720799217,315:  -1204  86  87
1720799217,315:  -1231  86  87
1720799217,315:  -1240  86  87
1720799217,315:  -1289  86  87
1720799217,315:  -1373  86  87
1720799217,315:  -1416  86  87
1720799217,315:  -1375  86  87
1720799217,315:  -1303  86  87
1720799217,315:  -1281  86  87
1720799217,315:  -1322  86  87
1720799217,315:  -1359  86  87
1720799217,315:  -1341  86  87
1720799217,315:  -1295  86  87
1720799217,315:  -1286  86  87
1720799217,315:  -1314  86  87
1720799217,347:  -1305  86  87
1720799217,347:  -1206  86  87
1720799217,347:  -1060  86  87
1720799217,347:   -968  86  87
1720799217,347:   -974  86  87
1720799217,347:  -1018  86  87
1720799217,347:  -1021  86  87
1720799217,347:   -973  86  87
1720799217,347:   -933  86  87
1720799217,347:   -933  86  87
1720799217,347:   -928  86  87
1720799217,347:   -863  86  87
1720799217,347:   -751  86  87
1720799217,347:   -671  86  87
1720799217,347:   -672  86  87
1720799217,347:   -715  86  87
1720799217,347:   -722  86  87
1720799217,347:   -675  86  87
1720799217,347:   -627  86  87
1720799217,347:   -626  86  87
1720799217,347:   -645  86  87
1720799217,347:   -621  86  87
1720799217,379:   -544  86  87
1720799217,379:   -480  86  87
1720799217,379:   -483  86  87
1720799217,379:   -529  86  87
1720799217,379:   -540  86  87
1720799217,379:   -485  86  87
1720799217,379:   -418  86  87
1720799217,379:   -402  86  87
1720799217,379:   -427  86  87
1720799217,379:   -426  86  87
1720799217,379:   -371  86  87
1720799217,379:   -311  86  87
1720799217,379:   -315  86  87
1720799217,379:   -372  86  87
1720799217,379:   -403  86  87
1720799217,411:   -362  86  87
1720799217,411:   -292  86  87
1720799217,411:   -269  86  87
1720799217,411:   -301  86  87
1720799217,411:   -323  86  87
1720799217,411:   -281  86  87
1720799217,411:   -210  86  87
1720799217,411:   -187  86  87
1720799217,411:   -231  86  87
1720799217,411:   -278  86  87
1720799217,411:   -264  86  87
1720799217,411:   -209  86  87
1720799217,411:   -181  86  87
1720799217,411:   -205  86  87
1720799217,411:   -229  86  87
1720799217,443:   -199  86  87
1720799217,443:   -139  86  87
1720799217,443:   -120  86  87
1720799217,443:   -169  86  87
1720799217,443:   -226  86  87
1720799217,443:   -229  86  87
1720799217,443:   -186  86  87
1720799217,443:   -166  86  87
1720799217,443:   -200  86  87
1720799217,443:   -241  86  87
1720799217,443:   -232  86  87
1720799217,443:   -188  86  87
1720799217,443:   -175  86  87
1720799217,443:   -225  86  87
1720799217,443:   -288  86  87
1720799217,443:   -297  86  87
1720799217,443:   -254  86  87
1720799217,443:   -220  86  87
1720799217,443:   -235  86  87
1720799217,443:   -265  86  87
1720799217,472:   -251  86  87
1720799217,472:   -193  86  87
1720799217,472:   -154  86  87
1720799217,472:   -173  86  87
1720799217,472:   -217  86  87
1720799217,472:   -223  86  87
1720799217,472:   -179  86  87
1720799217,472:   -141  86  87
1720799217,472:   -151  86  87
1720799217,472:   -182  86  87
1720799217,472:   -171  86  87
1720799217,472:   -108  86  87
1720799217,472:    -51  86  87
1720799217,472:    -54  86  87
1720799217,472:    -92  86  87
1720799217,502:    -98  86  87
1720799217,502:    -48  86  87
1720799217,502:      6  86  87
1720799217,502:      8  86  87
1720799217,502:    -26  86  87
1720799217,502:    -27  86  87
1720799217,502:     28  86  87
1720799217,502:     81  86  87
1720799217,502:     67  86  87
1720799217,502:      2  86  87
1720799217,502:    -37  86  87
1720799217,502:     -9  86  87
1720799217,502:     40  86  87
1720799217,502:     41  86  87
1720799217,502:     -6  86  87
1720799217,533:    -37  86  87
1720799217,533:     -7  86  87
1720799217,533:     46  86  87
1720799217,533:     52  86  87
1720799217,533:      3  86  87
1720799217,533:    -37  86  87
1720799217,533:    -18  86  87
1720799217,533:     34  86  87
1720799217,533:     55  86  87
1720799217,533:     26  86  87
1720799217,533:     -1  86  87
1720799217,533:     20  86  87
1720799217,533:     66  86  87
1720799217,533:     71  86  87
1720799217,533:     17  86  87
1720799217,564:    -38  86  87
1720799217,564:    -36  86  87
1720799217,564:     11  86  87
1720799217,564:     34  86  87
1720799217,564:      4  86  87
1720799217,564:    -32  86  87
1720799217,564:    -17  86  87
1720799217,564:     38  86  87
1720799217,564:     62  86  87
1720799217,564:     19  86  87
1720799217,564:    -38  86  87
1720799217,564:    -38  86  87
1720799217,564:     16  86  87
1720799217,564:     52  86  87
1720799217,564:     22  86  87
1720799217,596:    -29  86  87
1720799217,596:    -27  86  87
1720799217,596:     32  86  87
1720799217,596:     70  86  87
1720799217,596:     29  86  87
1720799217,596:    -48  86  87
1720799217,596:    -76  86  87
1720799217,596:    -30  86  87
1720799217,596:     25  86  87
1720799217,596:     25  86  87
1720799217,596:    -13  86  87
1720799217,596:    -17  86  87
1720799217,596:     34  86  87
1720799217,596:     80  86  87
1720799217,596:     62  86  87
1720799217,628:     -1  86  87
1720799217,628:    -32  86  87
1720799217,628:     -2  86  87
1720799217,628:     38  86  87
1720799217,628:     29  86  87
1720799217,628:    -15  86  87
1720799217,628:    -28  86  87
1720799217,628:     16  86  87
1720799217,628:     63  86  87
1720799217,628:     51  86  87
1720799217,628:    -10  86  87
1720799217,628:    -46  86  87
1720799217,628:    -18  86  87
1720799217,628:     28  86  87
1720799217,628:     26  86  87
1720799217,659:    -21  86  87
1720799217,659:    -48  86  87
1720799217,659:    -13  86  87
1720799217,659:     40  86  87
1720799217,659:     40  86  87
1720799217,659:    -21  86  87
1720799217,659:    -70  86  87
1720799217,690:    -53  86  87
1720799217,690:     -1  86  87
1720799217,690:     14  86  87
1720799217,690:    -25  86  87
1720799217,690:    -61  86  87
1720799217,690:    -40  86  87
1720799217,690:     13  86  87
1720799217,690:     28  86  87
1720799217,690:    -16  86  87
1720799217,690:    -62  86  87
1720799217,690:    -53  86  87
1720799217,690:     -6  86  87
1720799217,690:     13  86  87
1720799217,690:    -21  86  87
1720799217,690:    -54  86  87
1720799217,690:    -28  86  87
1720799217,690:     35  86  87
1720799217,690:     59  86  87
1720799217,690:     13  86  87
1720799217,690:    -45  86  87
1720799217,690:    -43  86  87
1720799217,690:     12  86  87
1720799217,690:     48  86  87
1720799217,722:     21  86  87
1720799217,722:    -23  86  87
1720799217,722:    -16  86  87
1720799217,722:     41  86  87
1720799217,722:     77  86  87
1720799217,722:     44  86  87
1720799217,722:    -19  86  87
1720799217,722:    -34  86  87
1720799217,722:     11  86  87
1720799217,722:     57  86  87
1720799217,722:     48  86  87
1720799217,722:      7  86  87
1720799217,722:      0  86  87
1720799217,722:     39  86  87
1720799217,722:     73  86  87
1720799217,754:     51  86  87
1720799217,754:     -4  86  87
1720799217,754:    -25  86  87
1720799217,754:      7  86  87
1720799217,754:     44  86  87
1720799217,754:     32  86  87
1720799217,754:     -9  86  87
1720799217,754:    -13  86  87
1720799217,754:     43  86  87
1720799217,754:    101  86  87
1720799217,754:     94  86  87
1720799217,754:     31  86  87
1720799217,754:    -13  86  87
1720799217,754:     14  86  87
1720799217,754:     76  86  87
1720799217,754:    105  86  87
1720799217,754:     81  86  87
1720799217,754:     58  86  87
1720799217,754:     83  86  87
1720799217,754:    136  86  87
1720799217,754:    155  86  87
1720799217,754:    121  86  87
1720799217,786:     83  86  87
1720799217,786:     93  86  87
1720799217,786:    136  86  87
1720799217,786:    152  86  87
1720799217,786:    121  86  87
1720799217,786:     93  86  87
1720799217,786:    115  86  87
1720799217,786:    166  86  87
1720799217,786:    174  86  87
1720799217,786:    114  86  87
1720799217,786:     50  86  87
1720799217,786:     55  86  87
1720799217,786:    124  86  87
1720799217,786:    178  86  87
1720799217,786:    173  86  87
1720799217,818:    152  86  87
1720799217,818:    184  86  87
1720799217,818:    262  86  87
1720799217,818:    310  86  87
1720799217,818:    280  86  87
1720799217,818:    220  86  87
1720799217,818:    208  86  87
1720799217,818:    252  86  87
1720799217,818:    279  86  87
1720799217,818:    236  86  87
1720799217,818:    160  86  87
1720799217,818:    130  86  87
1720799217,818:    163  86  87
1720799217,818:    197  86  87
1720799217,818:    171  86  87
1720799217,848:    104  86  87
1720799217,848:     66  86  87
1720799217,848:     79  86  87
1720799217,848:     96  86  87
1720799217,848:     67  86  87
1720799217,848:      8  86  87
1720799217,848:    -25  86  87
1720799217,848:    -15  86  87
1720799217,848:    -10  86  87
1720799217,848:    -57  86  87
1720799217,848:   -135  86  87
1720799217,848:   -176  86  87
1720799217,848:   -151  86  87
1720799217,848:   -103  86  87
1720799217,848:    -92  86  87
1720799217,878:   -118  86  87
1720799217,878:   -127  86  87
1720799217,878:    -88  86  87
1720799217,878:    -38  86  87
1720799217,878:    -35  86  87
1720799217,878:    -81  86  87
1720799217,878:   -117  86  87
1720799217,878:   -102  86  87
1720799217,878:    -65  86  87
1720799217,878:    -62  86  87
1720799217,878:   -102  86  87
1720799217,878:   -131  86  87
1720799217,878:   -106  86  87
1720799217,878:    -54  86  87
1720799217,878:    -41  86  87
1720799217,878:    -81  86  87
1720799217,878:   -120  86  87
1720799217,878:   -108  86  87
1720799217,878:    -63  86  87
1720799217,878:    -46  86  87
1720799217,878:    -73  86  87
1720799217,878:    -89  86  87
1720799217,878:    -49  86  87
1720799217,909:     20  86  87
1720799217,909:     53  86  87
1720799217,909:     28  86  87
1720799217,909:     -1  86  87
1720799217,909:     27  86  87
1720799217,909:     84  86  87
1720799217,909:     91  86  87
1720799217,909:     18  86  87
1720799217,909:    -64  86  87
1720799217,909:    -80  86  87
1720799217,909:    -59  86  87
1720799217,909:   -104  86  87
1720799217,909:   -257  86  87
1720799217,909:   -421  86  87
1720799217,909:   -435  86  87
1720799217,939:   -239  86  87
1720799217,939:    111  86  87
1720799217,939:    599  86  87
1720799217,939:   1356  86  87
1720799217,939:   2530  86  87
1720799217,939:   4034  86  87
1720799217,939:   5511  86  87
1720799217,970:   6624  86  86
1720799217,970:   7361  86  86
1720799217,970:   7974  86  86
1720799217,970:   8557  86  86
1720799217,970:   8789  86  86
1720799217,970:   8180  86  86
1720799217,970:   6618  86  86
1720799217,970:   4583  86  86
1720799217,970:   2760  86  86
1720799217,970:   1464  86  86
1720799217,970:    490  86  86
1720799217,970:   -497  86  86
1720799217,970:  -1521  86  86
1720799217,970:  -2277  86  86
1720799217,970:  -2485  86  86
1720799218,000:  -2178  86  86
1720799218,000:  -1647  86  86
1720799218,000:  -1177  86  86
1720799218,000:   -897  86  86
1720799218,000:   -810  86  86
1720799218,000:   -867  86  86
1720799218,000:   -994  86  86
1720799218,000:  -1101  86  86
1720799218,000:  -1139  86  86
1720799218,000:  -1140  86  86
1720799218,000:  -1171  86  86
1720799218,000:  -1249  86  86
1720799218,000:  -1310  86  86
1720799218,000:  -1292  86  86
1720799218,000:  -1226  86  86
1720799218,000:  -1196  86  86
1720799218,000:  -1231  86  86
1720799218,000:  -1279  86  86
1720799218,000:  -1279  86  86
1720799218,000:  -1242  86  86
1720799218,000:  -1230  86  86
1720799218,000:  -1260  86  86
1720799218,000:  -1267  86  86
1720799218,030:  -1182  86  86
1720799218,030:  -1032  86  86
1720799218,030:   -917  86  86
1720799218,030:   -902  86  86
1720799218,030:   -946  86  86
1720799218,030:   -963  86  86
1720799218,030:   -926  86  86
1720799218,030:   -886  86  86
1720799218,030:   -885  86  86
1720799218,030:   -894  86  86
1720799218,030:   -849  86  86
1720799218,030:   -747  86  86
1720799218,030:   -658  86  86
1720799218,030:   -644  86  86
1720799218,030:   -684  86  86
1720799218,062:   -702  86  86
1720799218,062:   -663  86  86
1720799218,062:   -608  86  86
1720799218,062:   -594  86  86
1720799218,062:   -611  86  86
1720799218,062:   -603  86  86
1720799218,062:   -544  86  86
1720799218,062:   -482  86  86
1720799218,062:   -475  86  86
1720799218,062:   -517  86  86
1720799218,062:   -541  86  86
1720799218,062:   -508  86  86
1720799218,062:   -450  86  86
1720799218,062:   -427  86  86
1720799218,062:   -445  86  86
1720799218,093:   -450  86  86
1720799218,093:   -406  86  86
1720799218,093:   -347  86  86
1720799218,093:   -337  86  86
1720799218,093:   -378  86  86
1720799218,093:   -407  86  86
1720799218,093:   -372  86  86
1720799218,093:   -304  86  86
1720799218,093:   -276  86  86
1720799218,093:   -306  86  86
1720799218,093:   -332  86  86
1720799218,093:   -298  86  86
1720799218,093:   -226  86  86
1720799218,093:   -189  86  86
1720799218,093:   -218  86  86
1720799218,123:   -258  86  86
1720799218,123:   -246  86  86
1720799218,123:   -190  86  86
1720799218,123:   -152  86  86
1720799218,123:   -164  86  86
1720799218,123:   -182  86  86
1720799218,123:   -155  86  86
1720799218,123:    -96  86  86
1720799218,123:    -74  86  86
1720799218,123:   -120  86  86
1720799218,123:   -183  86  86
1720799218,123:   -194  86  86
1720799218,123:   -155  86  86
1720799218,123:   -130  86  86
1720799218,123:   -161  86  86
1720799218,153:   -208  86  86
1720799218,153:   -211  86  86
1720799218,153:   -170  86  86
1720799218,153:   -149  86  86
1720799218,153:   -190  86  86
1720799218,153:   -254  86  86
1720799218,153:   -269  86  86
1720799218,153:   -228  86  86
1720799218,153:   -195  86  86
1720799218,153:   -220  86  86
1720799218,153:   -271  86  86
1720799218,153:   -274  86  86
1720799218,153:   -214  86  86
1720799218,153:   -157  86  86
1720799218,153:   -168  86  86
1720799218,184:   -224  86  86
1720799218,184:   -247  86  86
1720799218,184:   -202  86  86
1720799218,184:   -139  86  86
1720799218,184:   -120  86  86
1720799218,184:   -141  86  86
1720799218,184:   -139  86  86
1720799218,184:    -85  86  86
1720799218,184:    -27  86  86
1720799218,184:    -24  86  86
1720799218,184:    -65  86  86
1720799218,184:    -83  86  86
1720799218,184:    -43  86  86
1720799218,184:     13  86  86
1720799218,184:     24  86  86
1720799218,216:     -8  86  86
1720799218,216:    -17  86  86
1720799218,216:     33  86  86
1720799218,216:     98  86  86
1720799218,216:    107  86  86
1720799218,216:     54  86  86
1720799218,216:      8  86  86
1720799218,216:     27  86  86
1720799218,216:     84  86  86
1720799218,216:    108  86  86
1720799218,216:     78  86  86
1720799218,216:     46  86  86
1720799218,216:     63  86  86
1720799218,216:    112  86  86
1720799218,216:    128  86  86
1720799218,247:     90  86  86
1720799218,247:     43  86  86
1720799218,247:     43  86  86
1720799218,247:     79  86  86
1720799218,247:     94  86  86
1720799218,247:     65  86  86
1720799218,247:     35  86  86
1720799218,247:     52  86  86
1720799218,247:     99  86  86
1720799218,247:    112  86  86
1720799218,247:     67  86  86
1720799218,247:     15  86  86
1720799218,247:     19  86  86
1720799218,247:     73  86  86
1720799218,247:    110  86  86
1720799218,247:     89  86  86
1720799218,247:     51  86  86
1720799218,247:     61  86  86
1720799218,247:    123  86  86
1720799218,247:    169  86  86
1720799218,247:    148  86  86
1720799218,247:     91  86  86
1720799218,277:     71  86  86
1720799218,277:    109  86  86
1720799218,277:    153  86  86
1720799218,277:    150  86  86
1720799218,277:    117  86  86
1720799218,277:    110  86  86
1720799218,277:    148  86  86
1720799218,277:    183  86  86
1720799218,277:    165  86  86
1720799218,277:    110  86  86
1720799218,277:     83  86  86
1720799218,277:    111  86  86
1720799218,277:    151  86  86
1720799218,277:    149  86  86
1720799218,277:    113  86  86
1720799218,307:     96  86  86
1720799218,307:    126  86  86
1720799218,307:    165  86  86
1720799218,307:    157  86  86
1720799218,307:    105  86  86
1720799218,307:     65  86  86
1720799218,307:     74  86  86
1720799218,307:    103  86  86
1720799218,341:    101  86  86
1720799218,341:     67  86  86
1720799218,341:     52  86  86
1720799218,341:     86  86  86
1720799218,341:    132  86  86
1720799218,341:    133  86  86
1720799218,341:     81  86  86
1720799218,341:     36  86  86
1720799218,341:     49  86  86
1720799218,341:     95  86  86
1720799218,341:    112  86  86
1720799218,341:     83  86  86
1720799218,341:     53  86  86
1720799218,341:     69  86  86
1720799218,341:    113  86  86
1720799218,370:    123  86  86
1720799218,370:     81  86  86
1720799218,370:     40  86  86
1720799218,370:     53  86  86
1720799218,370:    103  86  86
1720799218,370:    124  86  86
1720799218,370:     86  86  86
1720799218,370:     39  86  86
1720799218,370:     47  86  86
1720799218,370:    102  86  86
1720799218,370:    131  86  86
1720799218,370:     88  86  86
1720799218,370:     18  86  86
1720799218,370:     -3  86  86
1720799218,370:     42  86  86
1720799218,370:     89  86  86
1720799218,370:     82  86  86
1720799218,370:     40  86  86
1720799218,370:     29  86  86
1720799218,370:     72  86  86
1720799218,370:    114  86  86
1720799218,370:    100  86  86
1720799218,401:     43  86  86
1720799218,401:     10  86  86
1720799218,401:     33  86  86
1720799218,401:     72  86  86
1720799218,401:     77  86  86
1720799218,401:     51  86  86
1720799218,401:     44  86  86
1720799218,401:     76  86  86
1720799218,401:    103  86  86
1720799218,401:     81  86  86
1720799218,401:     26  86  86
1720799218,401:      3  86  86
1720799218,401:     34  86  86
1720799218,401:     71  86  86
1720799218,401:     58  86  86
1720799218,433:      8  86  86
1720799218,433:    -12  86  86
1720799218,433:     30  86  86
1720799218,433:     85  86  86
1720799218,433:     83  86  86
1720799218,433:     23  86  86
1720799218,433:    -23  86  86
1720799218,433:     -8  86  86
1720799218,433:     37  86  86
1720799218,433:     43  86  86
1720799218,433:      3  86  86
1720799218,433:    -26  86  86
1720799218,433:      4  86  86
1720799218,464:     59  86  86
1720799218,464:     71  86  86
1720799218,464:     24  86  86
1720799218,464:    -18  86  86
1720799218,464:      0  86  86
1720799218,464:     56  86  86
1720799218,464:     85  86  86
1720799218,464:     65  86  86
1720799218,464:     46  86  86
1720799218,464:     74  86  86
1720799218,464:    125  86  86
1720799218,464:    134  86  86
1720799218,464:     82  86  86
1720799218,464:     26  86  86
1720799218,464:     22  86  86
1720799218,494:     55  86  86
1720799218,494:     64  86  86
1720799218,494:     32  86  86
1720799218,494:     13  86  86
1720799218,494:     61  86  86
1720799218,494:    149  86  86
1720799218,494:    204  86  86
1720799218,494:    195  86  86
1720799218,494:    170  86  86
1720799218,494:    192  86  86
1720799218,494:    256  86  86
1720799218,494:    297  86  86
1720799218,494:    273  86  86
1720799218,494:    220  86  86
1720799218,494:    201  86  86
1720799218,494:    222  86  86
1720799218,494:    231  86  86
1720799218,494:    186  86  86
1720799218,494:    113  86  86
1720799218,494:     77  86  86
1720799218,494:     94  86  86
1720799218,494:    114  86  86
1720799218,525:     86  86  86
1720799218,525:     24  86  86
1720799218,525:    -12  86  86
1720799218,525:      3  86  86
1720799218,525:     21  86  86
1720799218,525:    -14  86  86
1720799218,525:    -94  86  86
1720799218,525:   -150  86  86
1720799218,525:   -141  86  86
1720799218,525:   -103  86  86
1720799218,525:    -98  86  86
1720799218,525:   -130  86  86
1720799218,525:   -144  86  86
1720799218,525:   -105  86  86
1720799218,525:    -56  86  86
1720799218,555:    -60  86  86
1720799218,555:   -118  86  86
1720799218,555:   -158  86  86
1720799218,555:   -131  86  86
1720799218,555:    -71  86  86
1720799218,555:    -47  86  86
1720799218,555:    -73  86  86
1720799218,555:    -91  86  86
1720799218,555:    -55  86  86
1720799218,555:      4  86  86
1720799218,555:     20  86  86
1720799218,555:    -21  86  86
1720799218,555:    -63  86  86
1720799218,555:    -55  86  86
1720799218,555:    -15  86  86
1720799218,586:     -1  86  86
1720799218,586:    -31  86  86
1720799218,586:    -60  86  86
1720799218,586:    -39  86  86
1720799218,586:     13  86  86
1720799218,586:     38  86  86
1720799218,586:      3  86  86
1720799218,586:    -42  86  86
1720799218,618:    -34  86  86
1720799218,618:     32  86  86
1720799218,618:     97  86  86
1720799218,618:    107  86  86
1720799218,618:     69  86  86
1720799218,618:     27  86  86
1720799218,618:     10  86  86
1720799218,618:      3  86  86
1720799218,618:    -34  86  86
1720799218,618:   -114  86  86
1720799218,618:   -216  86  86
1720799218,618:   -309  86  86
1720799218,618:   -358  86  86
1720799218,618:   -322  86  86
1720799218,618:   -152  86  86
1720799218,618:    211  86  86
1720799218,618:    843  86  86
1720799218,618:   1813  86  86
1720799218,618:   3098  86  86
1720799218,618:   4529  86  86
1720799218,618:   5844  86  86
1720799218,618:   6869  86  86
1720799218,649:   7637  88  86
1720799218,649:   8273  88  86
1720799218,649:   8721  88  86
1720799218,649:   8652  88  86
1720799218,649:   7733  88  86
1720799218,649:   6011  88  86
1720799218,649:   3996  88  86
1720799218,649:   2280  88  86
1720799218,649:   1083  88  86
1720799218,649:    175  88  86
1720799218,649:   -752  88  86
1720799218,649:  -1694  88  86
1720799218,649:  -2341  88  86
1720799218,649:  -2414  88  86
1720799218,649:  -1978  88  86
1720799218,681:  -1387  88  86
1720799218,681:   -981  88  86
1720799218,681:   -861  88  86
1720799218,681:   -909  88  86
1720799218,681:   -970  88  86
1720799218,681:   -996  88  86
1720799218,681:  -1023  88  86
1720799218,681:  -1081  88  86
1720799218,681:  -1138  88  86
1720799218,681:  -1158  88  86
1720799218,681:  -1154  88  86
1720799218,681:  -1168  88  86
1720799218,681:  -1211  88  86
1720799218,681:  -1244  88  86
1720799218,681:  -1228  88  86
1720799218,711:  -1186  88  86
1720799218,711:  -1182  88  86
1720799218,711:  -1237  88  86
1720799218,711:  -1292  88  86
1720799218,711:  -1278  88  86
1720799218,711:  -1193  88  86
1720799218,711:  -1107  88  86
1720799218,711:  -1063  88  86
1720799218,711:  -1034  88  86
1720799218,711:   -970  88  86
1720799218,711:   -879  88  86
1720799218,711:   -827  88  86
1720799218,711:   -849  88  86
1720799218,711:   -901  88  86
1720799218,711:   -903  88  86
1720799218,741:   -840  88  86
1720799218,741:   -766  88  86
1720799218,741:   -737  88  86
1720799218,741:   -739  88  86
1720799218,741:   -720  88  86
1720799218,741:   -665  88  86
1720799218,741:   -622  88  86
1720799218,741:   -629  88  86
1720799218,741:   -663  88  86
1720799218,741:   -661  88  86
1720799218,741:   -604  88  86
1720799218,741:   -545  88  86
1720799218,741:   -540  88  86
1720799218,741:   -578  88  86
1720799218,741:   -595  88  86
1720799218,771:   -557  88  86
1720799218,771:   -496  88  86
1720799218,771:   -471  88  86
1720799218,771:   -482  88  86
1720799218,771:   -478  88  86
1720799218,771:   -432  88  86
1720799218,771:   -377  88  86
1720799218,771:   -367  88  86
1720799218,771:   -402  88  86
1720799218,771:   -425  88  86
1720799218,771:   -393  88  86
1720799218,771:   -335  88  86
1720799218,771:   -309  88  86
1720799218,771:   -329  88  86
1720799218,771:   -344  88  86
1720799218,801:   -310  88  86
1720799218,801:   -249  88  86
1720799218,801:   -223  88  86
1720799218,801:   -252  88  86
1720799218,801:   -288  88  86
1720799218,801:   -281  88  86
1720799218,801:   -237  88  86
1720799218,801:   -213  88  86
1720799218,801:   -232  88  86
1720799218,801:   -256  88  86
1720799218,801:   -235  88  86
1720799218,801:   -181  88  86
1720799218,801:   -155  88  86
1720799218,801:   -188  88  86
1720799218,801:   -235  88  86
1720799218,832:   -234  88  86
1720799218,832:   -184  88  86
1720799218,832:   -149  88  86
1720799218,832:   -173  88  86
1720799218,832:   -221  88  86
1720799218,832:   -230  88  86
1720799218,832:   -193  88  86
1720799218,832:   -168  88  86
1720799218,832:   -204  88  86
1720799218,832:   -268  88  86
1720799218,832:   -291  88  86
1720799218,832:   -260  88  86
1720799218,832:   -227  88  86
1720799218,832:   -242  88  86
1720799218,832:   -283  88  86
1720799218,832:   -291  88  86
1720799218,832:   -254  88  86
1720799218,832:   -222  88  86
1720799218,832:   -243  88  86
1720799218,832:   -288  88  86
1720799218,832:   -294  88  86
1720799218,832:   -243  88  86
1720799218,832:   -187  88  86
1720799218,864:   -178  88  86
1720799218,864:   -199  88  86
1720799218,864:   -191  88  86
1720799218,864:   -133  88  86
1720799218,864:    -74  88  86
1720799218,864:    -68  88  86
1720799218,864:   -103  88  86
1720799218,864:   -117  88  86
1720799218,864:    -80  88  86
1720799218,864:    -28  88  86
1720799218,864:    -11  88  86
1720799218,864:    -26  88  86
1720799218,864:    -22  88  86
1720799218,864:     28  88  86
1720799218,864:     80  88  86
1720799218,896:     79  88  86
1720799218,896:     26  88  86
1720799218,896:    -14  88  86
1720799218,896:      2  88  86
1720799218,896:     45  88  86
1720799218,896:     51  88  86
1720799218,896:     10  88  86
1720799218,896:    -25  88  86
1720799218,896:     -6  88  86
1720799218,896:     44  88  86
1720799218,896:     57  88  86
1720799218,896:     12  88  86
1720799218,896:    -39  88  86
1720799218,896:    -38  88  86
1720799218,896:      2  88  86
1720799218,928:     19  88  86
1720799218,928:    -17  88  86
1720799218,928:    -58  88  86
1720799218,928:    -49  88  86
1720799218,928:     -2  88  86
1720799218,928:     16  88  86
1720799218,928:    -25  88  86
1720799218,928:    -76  88  86
1720799218,928:    -75  88  86
1720799218,928:    -25  88  86
1720799218,928:      7  88  86
1720799218,928:    -14  88  86
1720799218,928:    -49  88  86
1720799218,928:    -37  88  86
1720799218,928:     16  88  86
1720799218,960:     42  88  86
1720799218,960:      1  88  86
1720799218,960:    -60  88  86
1720799218,960:    -71  88  86
1720799218,960:    -24  88  86
1720799218,960:     17  88  86
1720799218,960:      5  88  86
1720799218,960:    -29  88  86
1720799218,960:    -21  88  86
1720799218,960:     34  88  86
1720799218,960:     75  88  86
1720799218,960:     52  88  86
1720799218,960:     -5  88  86
1720799218,960:    -26  88  86
1720799218,960:      7  88  86
1720799218,992:     42  88  86
1720799218,992:     26  88  86
1720799218,992:    -24  88  86
1720799218,992:    -42  88  86
1720799218,992:     -4  88  86
1720799218,992:     41  88  86
1720799218,992:     31  88  86
1720799218,992:    -25  88  86
1720799218,992:    -61  88  86
1720799218,992:    -37  88  86
1720799218,992:     12  88  86
1720799218,992:     29  88  86
1720799218,992:      7  88  86
1720799218,992:     -2  88  86
1720799218,992:     35  88  86
1720799219,024:     84  88  86
1720799219,024:     82  88  86
1720799219,024:     25  88  86
1720799219,024:    -22  88  86
1720799219,024:    -11  88  86
1720799219,024:     35  88  86
1720799219,024:     50  88  86
1720799219,024:     15  88  86
1720799219,024:    -16  88  86
1720799219,024:      5  88  86
1720799219,024:     57  88  86
1720799219,024:     75  88  86
1720799219,024:     38  88  86
1720799219,024:     -5  88  86
1720799219,024:      1  88  86
1720799219,056:     41  88  86
1720799219,056:     55  88  86
1720799219,056:     20  88  86
1720799219,056:    -16  88  86
1720799219,056:     -2  88  86
1720799219,056:     43  88  86
1720799219,056:     56  88  86
1720799219,056:      9  88  86
1720799219,056:    -49  88  86
1720799219,056:    -57  88  86
1720799219,056:    -17  88  86
1720799219,056:     14  88  86
1720799219,056:      1  88  86
1720799219,056:    -23  88  86
1720799219,056:     -9  88  86
1720799219,056:     39  88  86
1720799219,056:     66  88  86
1720799219,056:     39  88  86
1720799219,056:     -6  88  86
1720799219,056:    -12  88  86
1720799219,056:     27  88  86
1720799219,056:     59  88  86
1720799219,088:     49  88  86
1720799219,088:     22  88  86
1720799219,088:     28  88  86
1720799219,088:     71  88  86
1720799219,088:     98  88  86
1720799219,088:     70  88  86
1720799219,088:     20  88  86
1720799219,088:     10  88  86
1720799219,088:     50  88  86
1720799219,088:     85  88  86
1720799219,088:     67  88  86
1720799219,088:     26  88  86
1720799219,088:     29  88  86
1720799219,088:     88  88  86
1720799219,088:    138  88  86
1720799219,118:    116  88  86
1720799219,118:     44  88  86
1720799219,118:      6  88  86
1720799219,118:     37  88  86
1720799219,118:     85  88  86
1720799219,118:     79  88  86
1720799219,118:     26  88  86
1720799219,118:      3  88  86
1720799219,118:     52  88  86
1720799219,118:    122  88  86
1720799219,118:    132  88  86
1720799219,118:     76  88  86
1720799219,118:     34  88  86
1720799219,118:     62  88  86
1720799219,118:    122  88  86
1720799219,149:    132  88  86
1720799219,149:     77  88  86
1720799219,149:     26  88  86
1720799219,149:     38  88  86
1720799219,149:     85  88  86
1720799219,149:     87  88  86
1720799219,149:     24  88  86
1720799219,149:    -30  88  86
1720799219,149:     -6  88  86
1720799219,149:     77  88  86
1720799219,149:    134  88  86
1720799219,149:    129  88  86
1720799219,149:    119  88  86
1720799219,149:    168  88  86
1720799219,149:    258  88  86
1720799219,179:    305  88  86
1720799219,179:    269  88  86
1720799219,179:    204  88  86
1720799219,179:    191  88  86
1720799219,179:    230  88  86
1720799219,179:    252  88  86
1720799219,179:    212  88  86
1720799219,179:    152  88  86
1720799219,179:    141  88  86
1720799219,179:    180  88  86
1720799219,179:    197  88  86
1720799219,179:    141  88  86
1720799219,179:     51  88  86
1720799219,179:      3  88  86
1720799219,179:     12  88  86
1720799219,211:     20  88  86
1720799219,211:    -28  88  86
1720799219,211:   -106  88  86
1720799219,211:   -146  88  86
1720799219,211:   -129  88  86
1720799219,211:   -106  88  86
1720799219,211:   -134  88  86
1720799219,211:   -194  88  86
1720799219,211:   -221  88  86
1720799219,211:   -186  88  86
1720799219,211:   -136  88  86
1720799219,211:   -131  88  86
1720799219,211:   -168  88  86
1720799219,211:   -187  88  86
1720799219,211:   -151  88  86
1720799219,243:    -99  88  86
1720799219,243:    -91  88  86
1720799219,243:   -135  88  86
1720799219,243:   -171  88  86
1720799219,243:   -154  88  86
1720799219,243:   -106  88  86
1720799219,243:    -83  88  86
1720799219,243:   -104  88  86
1720799219,243:   -125  88  86
1720799219,243:   -105  88  86
1720799219,243:    -64  88  86
1720799219,243:    -54  88  86
1720799219,243:    -93  88  86
1720799219,243:   -135  88  86
1720799219,243:   -129  88  86
1720799219,243:    -87  88  86
1720799219,243:    -60  88  86
1720799219,243:    -72  88  86
1720799219,243:    -90  88  86
1720799219,243:    -67  88  86
1720799219,243:     -5  88  86
1720799219,243:     44  88  86
1720799219,243:     43  88  86
1720799219,273:     12  88  86
1720799219,273:     -9  88  86
1720799219,273:    -19  88  86
1720799219,273:    -44  88  86
1720799219,273:    -91  88  86
1720799219,273:   -138  88  86
1720799219,273:   -165  88  86
1720799219,273:   -193  88  86
1720799219,273:   -253  88  86
1720799219,273:   -311  88  86
1720799219,273:   -266  88  86
1720799219,273:    -40  88  86
1720799219,273:    385  88  86
1720799219,273:   1028  88  86
1720799219,273:   1957  88  86
1720799219,304:   3199  88  86
1720799219,304:   4594  88  86
1720799219,304:   5826  88  86
1720799219,304:   6686  88  86
1720799219,304:   7255  88  86
1720799219,304:   7744  88  86
1720799219,304:   8107  88  86
1720799219,334:   7944  90  88
1720799219,334:   6881  90  88
1720799219,334:   5051  90  88
1720799219,334:   3085  90  88
1720799219,334:   1574  90  88
1720799219,334:    584  90  88
1720799219,334:   -251  90  88
1720799219,334:  -1208  90  88
1720799219,334:  -2131  90  88
1720799219,334:  -2630  90  88
1720799219,334:  -2523  90  88
1720799219,334:  -2018  90  88
1720799219,334:  -1491  90  88
1720799219,334:  -1161  90  88
1720799219,334:  -1017  90  88
1720799219,364:   -965  90  88
1720799219,364:   -968  90  88
1720799219,364:  -1031  90  88
1720799219,364:  -1125  90  88
1720799219,364:  -1184  90  88
1720799219,364:  -1175  90  88
1720799219,364:  -1144  90  88
1720799219,364:  -1154  90  88
1720799219,364:  -1200  90  88
1720799219,364:  -1222  90  88
1720799219,364:  -1182  90  88
1720799219,364:  -1119  90  88
1720799219,364:  -1105  90  88
1720799219,364:  -1162  90  88
1720799219,364:  -1234  90  88
1720799219,364:  -1254  90  88
1720799219,364:  -1218  90  88
1720799219,364:  -1173  90  88
1720799219,364:  -1139  90  88
1720799219,364:  -1085  90  88
1720799219,364:   -985  90  88
1720799219,364:   -871  90  88
1720799219,364:   -814  90  88
1720799219,397:   -840  90  88
1720799219,397:   -897  90  88
1720799219,397:   -919  90  88
1720799219,397:   -894  90  88
1720799219,397:   -862  90  88
1720799219,397:   -853  90  88
1720799219,397:   -843  90  88
1720799219,426:   -800  90  88
1720799219,426:   -735  90  88
1720799219,426:   -700  90  88
1720799219,426:   -725  90  88
1720799219,426:   -773  90  88
1720799219,426:   -785  90  88
1720799219,426:   -748  90  88
1720799219,426:   -703  90  88
1720799219,426:   -687  90  88
1720799219,426:   -685  90  88
1720799219,426:   -658  90  88
1720799219,426:   -602  90  88
1720799219,426:   -566  90  88
1720799219,426:   -585  90  88
1720799219,426:   -631  90  88
1720799219,426:   -642  90  88
1720799219,426:   -596  90  88
1720799219,426:   -540  90  88
1720799219,426:   -528  90  88
1720799219,426:   -552  90  88
1720799219,426:   -552  90  88
1720799219,426:   -501  90  88
1720799219,426:   -442  90  88
1720799219,458:   -434  90  88
1720799219,458:   -472  90  88
1720799219,458:   -492  90  88
1720799219,458:   -454  90  88
1720799219,458:   -392  90  88
1720799219,458:   -368  90  88
1720799219,458:   -388  90  88
1720799219,458:   -394  90  88
1720799219,458:   -349  90  88
1720799219,458:   -286  90  88
1720799219,458:   -273  90  88
1720799219,458:   -318  90  88
1720799219,490:   -362  90  88
1720799219,490:   -351  90  88
1720799219,490:   -302  90  88
1720799219,490:   -278  90  88
1720799219,490:   -301  90  88
1720799219,490:   -329  90  88
1720799219,490:   -315  90  88
1720799219,490:   -269  90  88
1720799219,490:   -248  90  88
1720799219,490:   -279  90  88
1720799219,490:   -324  90  88
1720799219,490:   -329  90  88
1720799219,490:   -296  90  88
1720799219,490:   -276  90  88
1720799219,490:   -300  90  88
1720799219,522:   -338  90  88
1720799219,522:   -341  90  88
1720799219,522:   -307  90  88
1720799219,522:   -287  90  88
1720799219,522:   -317  90  88
1720799219,522:   -367  90  88
1720799219,522:   -380  90  88
1720799219,522:   -344  90  88
1720799219,522:   -307  90  88
1720799219,522:   -314  90  88
1720799219,522:   -344  90  88
1720799219,522:   -346  90  88
1720799219,522:   -302  90  88
1720799219,522:   -261  90  88
1720799219,522:   -268  90  88
1720799219,522:   -306  90  88
1720799219,522:   -313  90  88
1720799219,522:   -263  90  88
1720799219,522:   -196  90  88
1720799219,522:   -170  90  88
1720799219,522:   -182  90  88
1720799219,522:   -180  90  88
1720799219,554:   -132  90  88
1720799219,554:    -75  90  88
1720799219,554:    -64  90  88
1720799219,554:   -103  90  88
1720799219,554:   -134  90  88
1720799219,554:   -119  90  88
1720799219,554:    -80  90  88
1720799219,554:    -71  90  88
1720799219,554:    -97  90  88
1720799219,554:   -111  90  88
1720799219,554:    -81  90  88
1720799219,554:    -39  90  88
1720799219,554:    -43  90  88
1720799219,554:    -96  90  88
1720799219,554:   -140  90  88
1720799219,585:   -126  90  88
1720799219,585:    -81  90  88
1720799219,585:    -68  90  88
1720799219,585:   -103  90  88
1720799219,585:   -132  90  88
1720799219,585:   -106  90  88
1720799219,585:    -51  90  88
1720799219,585:    -36  90  88
1720799219,585:    -82  90  88
1720799219,585:   -134  90  88
1720799219,585:   -131  90  88
1720799219,585:    -81  90  88
1720799219,585:    -47  90  88
1720799219,585:    -64  90  88
1720799219,585:    -93  90  88
1720799219,615:    -77  90  88
1720799219,615:    -21  90  88
1720799219,615:     12  90  88
1720799219,615:    -13  90  88
1720799219,615:    -60  90  88
1720799219,615:    -65  90  88
1720799219,615:    -24  90  88
1720799219,615:      8  90  88
1720799219,615:     -6  90  88
1720799219,615:    -35  90  88
1720799219,615:    -23  90  88
1720799219,615:     30  90  88
1720799219,615:     66  90  88
1720799219,615:     46  90  88
1720799219,615:      3  90  88
1720799219,646:      2  90  88
1720799219,646:     48  90  88
1720799219,646:     85  90  88
1720799219,646:     69  90  88
1720799219,646:     33  90  88
1720799219,646:     36  90  88
1720799219,646:     86  90  88
1720799219,646:    119  90  88
1720799219,646:     84  90  88
1720799219,646:     16  90  88
1720799219,646:    -10  90  88
1720799219,646:     31  90  88
1720799219,646:     77  90  88
1720799219,646:     68  90  88
1720799219,646:     18  90  88
1720799219,676:     -1  90  88
1720799219,676:     40  90  88
1720799219,676:     90  90  88
1720799219,676:     84  90  88
1720799219,676:     29  90  88
1720799219,676:     -8  90  88
1720799219,676:     13  90  88
1720799219,676:     53  90  88
1720799219,676:     53  90  88
1720799219,676:     13  90  88
1720799219,676:    -12  90  88
1720799219,676:     12  90  88
1720799219,676:     45  90  88
1720799219,676:     28  90  88
1720799219,676:    -35  90  88
1720799219,706:    -76  90  88
1720799219,706:    -51  90  88
1720799219,706:      3  90  88
1720799219,706:     15  90  88
1720799219,706:    -24  90  88
1720799219,706:    -51  90  88
1720799219,706:    -21  90  88
1720799219,706:     36  90  88
1720799219,706:     46  90  88
1720799219,706:     -7  90  88
1720799219,706:    -60  90  88
1720799219,706:    -55  90  88
1720799219,706:     -9  90  88
1720799219,706:      9  90  88
1720799219,706:    -26  90  88
1720799219,736:    -60  90  88
1720799219,736:    -40  90  88
1720799219,736:     14  90  88
1720799219,736:     34  90  88
1720799219,736:     -7  90  88
1720799219,736:    -57  90  88
1720799219,736:    -52  90  88
1720799219,736:     -1  90  88
1720799219,736:     27  90  88
1720799219,736:     -2  90  88
1720799219,736:    -43  90  88
1720799219,736:    -32  90  88
1720799219,736:     22  90  88
1720799219,736:     51  90  88
1720799219,736:     11  90  88
1720799219,768:    -53  90  88
1720799219,768:    -69  90  88
1720799219,768:    -25  90  88
1720799219,768:     16  90  88
1720799219,768:     -1  90  88
1720799219,768:    -50  90  88
1720799219,768:    -63  90  88
1720799219,768:    -19  90  88
1720799219,768:     28  90  88
1720799219,768:     18  90  88
1720799219,768:    -32  90  88
1720799219,768:    -54  90  88
1720799219,768:    -16  90  88
1720799219,768:     39  90  88
1720799219,768:     51  90  88
1720799219,800:     25  90  88
1720799219,800:     17  90  88
1720799219,800:     56  90  88
1720799219,800:    102  90  88
1720799219,800:     95  90  88
1720799219,800:     37  90  88
1720799219,800:     -6  90  88
1720799219,800:      6  90  88
1720799219,832:     43  90  88
1720799219,832:     42  90  88
1720799219,832:     -2  90  88
1720799219,832:    -25  90  88
1720799219,832:     18  90  88
1720799219,832:     94  90  88
1720799219,832:    128  90  88
1720799219,832:    102  90  88
1720799219,832:     75  90  88
1720799219,832:    104  90  88
1720799219,832:    173  90  88
1720799219,832:    214  90  88
1720799219,832:    198  90  88
1720799219,832:    171  90  88
1720799219,832:    181  90  88
1720799219,832:    214  90  88
1720799219,832:    210  90  88
1720799219,832:    149  90  88
1720799219,832:     87  90  88
1720799219,832:     79  90  88
1720799219,832:    110  90  88
1720799219,832:    112  90  88
1720799219,865:     59  90  88
1720799219,865:      0  90  88
1720799219,865:     -8  90  88
1720799219,865:     21  90  88
1720799219,865:     19  90  88
1720799219,865:    -50  90  88
1720799219,865:   -136  90  88
1720799219,865:   -165  90  88
1720799219,865:   -133  90  88
1720799219,865:   -103  90  88
1720799219,865:   -123  90  88
1720799219,865:   -162  90  88
1720799219,865:   -156  90  88
1720799219,865:    -97  90  88
1720799219,865:    -49  90  88
1720799219,865:    -68  90  88
1720799219,865:   -129  90  88
1720799219,865:   -158  90  88
1720799219,865:   -127  90  88
1720799219,865:    -85  90  88
1720799219,865:    -87  90  88
1720799219,865:   -119  90  88
1720799219,865:   -121  90  88
1720799219,895:    -70  90  88
1720799219,895:    -16  90  88
1720799219,895:    -18  90  88
1720799219,895:    -66  90  88
1720799219,895:    -90  90  88
1720799219,895:    -57  90  88
1720799219,895:     -8  90  88
1720799219,895:     -5  90  88
1720799219,895:    -47  90  88
1720799219,895:    -67  90  88
1720799219,895:    -29  90  88
1720799219,895:     26  90  88
1720799219,895:     31  90  88
1720799219,895:    -16  90  88
1720799219,895:    -48  90  88
1720799219,934:    -24  90  88
1720799219,934:     26  90  88
1720799219,934:     46  90  88
1720799219,934:     30  90  88
1720799219,934:     29  90  88
1720799219,934:     64  90  88
1720799219,934:     88  90  88
1720799219,934:     43  90  88
1720799219,934:    -53  90  88
1720799219,934:   -109  90  88
1720799219,934:    -84  90  88
1720799219,934:    -38  90  88
1720799219,934:    -62  90  88
1720799219,934:   -152  90  88
1720799219,934:   -184  90  88
1720799219,956:    -42  90  88
1720799219,956:    262  90  88
1720799219,956:    654  90  88
1720799219,956:   1170  90  88
1720799219,956:   1976  90  88
1720799219,956:   3144  90  88
1720799219,956:   4462  90  88
1720799219,956:   5554  90  88
1720799219,956:   6253  90  88
1720799219,956:   6754  90  88
1720799219,956:   7311  90  88
1720799219,956:   7792  90  88
1720799219,956:   7683  90  88
1720799219,956:   6608  90  88
1720799219,956:   4808  90  88
1720799219,988:   2979  93  89
1720799219,988:   1637  93  89
1720799219,988:    716  93  89
1720799219,988:   -178  93  89
1720799219,988:  -1207  93  89
1720799219,988:  -2111  93  89
1720799219,988:  -2534  93  89
1720799219,988:  -2420  93  89
1720799219,988:  -2022  93  89
1720799219,988:  -1616  93  89
1720799219,988:  -1300  93  89
1720799219,988:  -1073  93  89
1720799219,988:   -957  93  89
1720799219,988:   -981  93  89
1720799219,988:  -1088  93  89
1720799220,022:  -1148  93  89
1720799220,022:  -1100  93  89
1720799220,022:  -1017  93  89
1720799220,022:  -1014  93  89
1720799220,022:  -1105  93  89
1720799220,022:  -1185  93  89
1720799220,022:  -1168  93  89
1720799220,022:  -1084  93  89
1720799220,022:  -1025  93  89
1720799220,022:  -1033  93  89
1720799220,022:  -1066  93  89
1720799220,022:  -1073  93  89
1720799220,022:  -1060  93  89
1720799220,022:  -1069  93  89
1720799220,022:  -1101  93  89
1720799220,052:  -1096  93  89
1720799220,052:  -1010  93  89
1720799220,052:   -883  93  89
1720799220,052:   -799  93  89
1720799220,052:   -797  93  89
1720799220,052:   -823  93  89
1720799220,052:   -813  93  89
1720799220,052:   -770  93  89
1720799220,052:   -749  93  89
1720799220,052:   -773  93  89
1720799220,052:   -790  93  89
1720799220,052:   -744  93  89
1720799220,052:   -650  93  89
1720799220,052:   -582  93  89
1720799220,052:   -581  93  89
1720799220,086:   -603  93  89
1720799220,086:   -587  93  89
1720799220,086:   -534  93  89
1720799220,086:   -505  93  89
1720799220,086:   -532  93  89
1720799220,087:   -568  93  89
1720799220,087:   -549  93  89
1720799220,087:   -480  93  89
1720799220,087:   -430  93  89
1720799220,087:   -442  93  89
1720799220,087:   -470  93  89
1720799220,087:   -443  93  89
1720799220,087:   -363  93  89
1720799220,087:   -308  93  89
1720799220,087:   -332  93  89
1720799220,087:   -390  93  89
1720799220,087:   -395  93  89
1720799220,087:   -326  93  89
1720799220,087:   -254  93  89
1720799220,087:   -243  93  89
1720799220,087:   -277  93  89
1720799220,087:   -282  93  89
1720799220,116:   -234  93  89
1720799220,116:   -187  93  89
1720799220,116:   -196  93  89
1720799220,116:   -242  93  89
1720799220,116:   -255  93  89
1720799220,116:   -211  93  89
1720799220,116:   -161  93  89
1720799220,116:   -162  93  89
1720799220,116:   -201  93  89
1720799220,116:   -209  93  89
1720799220,116:   -161  93  89
1720799220,116:   -106  93  89
1720799220,116:   -110  93  89
1720799220,116:   -165  93  89
1720799220,116:   -201  93  89
1720799220,148:   -180  93  89
1720799220,148:   -135  93  89
1720799220,148:   -130  93  89
1720799220,148:   -166  93  89
1720799220,148:   -190  93  89
1720799220,148:   -165  93  89
1720799220,148:   -130  93  89
1720799220,148:   -144  93  89
1720799220,178:   -211  93  89
1720799220,178:   -262  93  89
1720799220,178:   -251  93  89
1720799220,178:   -209  93  89
1720799220,178:   -203  93  89
1720799220,178:   -252  93  89
1720799220,178:   -295  93  89
1720799220,178:   -278  93  89
1720799220,178:   -226  93  89
1720799220,178:   -212  93  89
1720799220,178:   -262  93  89
1720799220,178:   -318  93  89
1720799220,178:   -311  93  89
1720799220,178:   -247  93  89
1720799220,178:   -197  93  89
1720799220,178:   -201  93  89
1720799220,178:   -220  93  89
1720799220,178:   -197  93  89
1720799220,178:   -136  93  89
1720799220,178:    -98  93  89
1720799220,178:   -118  93  89
1720799220,178:   -155  93  89
1720799220,210:   -150  93  89
1720799220,210:   -102  93  89
1720799220,210:    -70  93  89
1720799220,210:    -87  93  89
1720799220,210:   -116  93  89
1720799220,210:    -99  93  89
1720799220,210:    -38  93  89
1720799220,210:      2  93  89
1720799220,210:    -21  93  89
1720799220,210:    -68  93  89
1720799220,210:    -67  93  89
1720799220,210:    -13  93  89
1720799220,210:     35  93  89
1720799220,210:     29  93  89
1720799220,210:     -3  93  89
1720799220,242:      1  93  89
1720799220,242:     51  93  89
1720799220,242:     88  93  89
1720799220,242:     58  93  89
1720799220,242:    -10  93  89
1720799220,242:    -42  93  89
1720799220,242:    -12  93  89
1720799220,242:     30  93  89
1720799220,242:     27  93  89
1720799220,242:    -10  93  89
1720799220,242:    -20  93  89
1720799220,242:     25  93  89
1720799220,242:     78  93  89
1720799220,242:     78  93  89
1720799220,242:     29  93  89
1720799220,273:     -3  93  89
1720799220,273:     23  93  89
1720799220,273:     70  93  89
1720799220,273:     78  93  89
1720799220,273:     42  93  89
1720799220,273:     18  93  89
1720799220,273:     48  93  89
1720799220,273:     98  93  89
1720799220,273:    107  93  89
1720799220,273:     65  93  89
1720799220,273:     30  93  89
1720799220,273:     52  93  89
1720799220,273:    106  93  89
1720799220,273:    131  93  89
1720799220,273:    111  93  89
1720799220,273:     96  93  89
1720799220,273:    128  93  89
1720799220,273:    179  93  89
1720799220,273:    188  93  89
1720799220,273:    141  93  89
1720799220,273:     97  93  89
1720799220,273:    108  93  89
1720799220,273:    155  93  89
1720799220,304:    172  93  89
1720799220,304:    137  93  89
1720799220,304:    103  93  89
1720799220,304:    126  93  89
1720799220,304:    192  93  89
1720799220,304:    226  93  89
1720799220,304:    187  93  89
1720799220,304:    125  93  89
1720799220,304:    115  93  89
1720799220,304:    167  93  89
1720799220,304:    216  93  89
1720799220,304:    206  93  89
1720799220,304:    164  93  89
1720799220,304:    157  93  89
1720799220,304:    204  93  89
1720799220,336:    248  93  89
1720799220,336:    228  93  89
1720799220,336:    164  93  89
1720799220,336:    129  93  89
1720799220,336:    156  93  89
1720799220,336:    200  93  89
1720799220,336:    201  93  89
1720799220,336:    164  93  89
1720799220,336:    148  93  89
1720799220,336:    185  93  89
1720799220,336:    231  93  89
1720799220,336:    227  93  89
1720799220,336:    177  93  89
1720799220,336:    143  93  89
1720799220,336:    160  93  89
1720799220,368:    193  93  89
1720799220,368:    188  93  89
1720799220,368:    149  93  89
1720799220,368:    133  93  89
1720799220,368:    169  93  89
1720799220,368:    211  93  89
1720799220,368:    197  93  89
1720799220,368:    131  93  89
1720799220,368:     85  93  89
1720799220,368:    104  93  89
1720799220,368:    150  93  89
1720799220,368:    157  93  89
1720799220,368:    113  93  89
1720799220,368:     80  93  89
1720799220,368:    103  93  89
1720799220,400:    155  93  89
1720799220,400:    166  93  89
1720799220,400:    120  93  89
1720799220,400:     77  93  89
1720799220,400:     89  93  89
1720799220,400:    135  93  89
1720799220,400:    151  93  89
1720799220,400:    115  93  89
1720799220,400:     80  93  89
1720799220,400:     97  93  89
1720799220,400:    147  93  89
1720799220,400:    160  93  89
1720799220,400:    113  93  89
1720799220,400:     58  93  89
1720799220,400:     58  93  89
1720799220,432:    106  93  89
1720799220,432:    138  93  89
1720799220,432:    119  93  89
1720799220,432:     90  93  89
1720799220,432:    107  93  89
1720799220,432:    161  93  89
1720799220,432:    190  93  89
1720799220,432:    154  93  89
1720799220,432:     96  93  89
1720799220,432:     82  93  89
1720799220,432:    115  93  89
1720799220,432:    138  93  89
1720799220,432:    110  93  89
1720799220,432:     63  93  89
1720799220,432:     55  93  89
1720799220,432:     91  93  89
1720799220,432:    117  93  89
1720799220,432:     97  93  89
1720799220,432:     65  93  89
1720799220,432:     87  93  89
1720799220,432:    168  93  89
1720799220,432:    249  93  89
1720799220,464:    276  93  89
1720799220,464:    267  93  89
1720799220,464:    287  93  89
1720799220,464:    351  93  89
1720799220,464:    406  93  89
1720799220,464:    391  93  89
1720799220,464:    319  93  89
1720799220,464:    259  93  89
1720799220,464:    254  93  89
1720799220,464:    270  93  89
1720799220,464:    252  93  89
1720799220,464:    199  93  89
1720799220,464:    167  93  89
1720799220,495:    188  93  89
1720799220,495:    224  93  89
1720799220,495:    207  93  89
1720799220,495:    132  93  89
1720799220,495:     63  93  89
1720799220,495:     50  93  89
1720799220,495:     68  93  89
1720799220,495:     54  93  89
1720799220,495:     -8  93  89
1720799220,495:    -59  93  89
1720799220,495:    -50  93  89
1720799220,495:     -9  93  89
1720799220,495:     -4  93  89
1720799220,495:    -54  93  89
1720799220,495:    -97  93  89
1720799220,525:    -77  93  89
1720799220,525:    -20  93  89
1720799220,525:      3  93  89
1720799220,525:    -34  93  89
1720799220,525:    -73  93  89
1720799220,525:    -57  93  89
1720799220,525:     -5  93  89
1720799220,525:     10  93  89
1720799220,525:    -40  93  89
1720799220,525:    -99  93  89
1720799220,525:    -97  93  89
1720799220,525:    -42  93  89
1720799220,525:     -7  93  89
1720799220,525:    -31  93  89
1720799220,525:    -66  93  89
1720799220,555:    -48  93  89
1720799220,555:     19  93  89
1720799220,555:     60  93  89
1720799220,555:     27  93  89
1720799220,555:    -40  93  89
1720799220,555:    -63  93  89
1720799220,555:    -20  93  89
1720799220,555:     34  93  89
1720799220,555:     40  93  89
1720799220,555:     12  93  89
1720799220,555:     18  93  89
1720799220,555:     81  93  89
1720799220,555:    148  93  89
1720799220,555:    155  93  89
1720799220,555:     97  93  89
1720799220,585:     35  93  89
1720799220,585:     16  93  89
1720799220,585:     30  93  89
1720799220,585:     28  93  89
1720799220,585:    -12  93  89
1720799220,585:    -70  93  89
1720799220,585:   -117  93  89
1720799220,585:   -142  93  89
1720799220,585:   -126  93  89
1720799220,585:    -22  93  89
1720799220,585:    230  93  89
1720799220,585:    698  93  89
1720799220,585:   1452  93  89
1720799220,585:   2529  93  89
1720799220,585:   3840  93  89
1720799220,615:   5157  93  89
1720799220,615:   6239  93  89
1720799220,615:   7039  93  89
1720799220,615:   7696  93  89
1720799220,615:   8280  93  89
1720799220,615:   8545  93  89
1720799220,615:   8060  93  89
1720799220,615:   6654  93  89
1720799220,615:   4700  93  89
1720799220,615:   2854  93  89
1720799220,615:   1510  93  89
1720799220,615:    539  93  89
1720799220,615:   -425  93  89
1720799220,615:  -1493  93  89
1720799220,615:  -2382  93  89
1720799220,646:  -2723  94  91
1720799220,646:  -2453  94  91
1720799220,646:  -1869  94  91
1720799220,646:  -1348  94  91
1720799220,646:  -1071  94  91
1720799220,646:   -993  94  91
1720799220,646:   -986  94  91
1720799220,646:   -986  94  91
1720799220,646:  -1001  94  91
1720799220,646:  -1045  94  91
1720799220,646:  -1094  94  91
1720799220,646:  -1116  94  91
1720799220,646:  -1113  94  91
1720799220,646:  -1117  94  91
1720799220,646:  -1137  94  91
1720799220,677:  -1149  94  91
1720799220,677:  -1121  94  91
1720799220,677:  -1064  94  91
1720799220,677:  -1041  94  91
1720799220,677:  -1095  94  91
1720799220,677:  -1193  94  91
1720799220,677:  -1254  94  91
1720799220,677:  -1237  94  91
1720799220,677:  -1170  94  91
1720799220,677:  -1102  94  91
1720799220,677:  -1039  94  91
1720799220,677:   -953  94  91
1720799220,677:   -848  94  91
1720799220,677:   -780  94  91
1720799220,677:   -795  94  91
1720799220,707:   -867  94  91
1720799220,707:   -913  94  91
1720799220,707:   -884  94  91
1720799220,707:   -812  94  91
1720799220,707:   -765  94  91
1720799220,707:   -756  94  91
1720799220,707:   -738  94  91
1720799220,707:   -677  94  91
1720799220,707:   -608  94  91
1720799220,707:   -593  94  91
1720799220,707:   -638  94  91
1720799220,707:   -677  94  91
1720799220,707:   -651  94  91
1720799220,707:   -578  94  91
1720799220,707:   -525  94  91
1720799220,707:   -519  94  91
1720799220,707:   -522  94  91
1720799220,707:   -487  94  91
1720799220,707:   -429  94  91
1720799220,707:   -404  94  91
1720799220,707:   -435  94  91
1720799220,707:   -474  94  91
1720799220,738:   -466  94  91
1720799220,738:   -416  94  91
1720799220,738:   -375  94  91
1720799220,738:   -372  94  91
1720799220,738:   -376  94  91
1720799220,738:   -343  94  91
1720799220,738:   -286  94  91
1720799220,738:   -258  94  91
1720799220,769:   -284  94  91
1720799220,769:   -320  94  91
1720799220,769:   -314  94  91
1720799220,769:   -266  94  91
1720799220,769:   -232  94  91
1720799220,769:   -239  94  91
1720799220,769:   -254  94  91
1720799220,769:   -228  94  91
1720799220,769:   -169  94  91
1720799220,769:   -133  94  91
1720799220,769:   -152  94  91
1720799220,769:   -190  94  91
1720799220,769:   -184  94  91
1720799220,769:   -134  94  91
1720799220,769:    -97  94  91
1720799220,769:   -116  94  91
1720799220,769:   -159  94  91
1720799220,769:   -161  94  91
1720799220,769:   -111  94  91
1720799220,769:    -67  94  91
1720799220,769:    -85  94  91
1720799220,769:   -145  94  91
1720799220,799:   -178  94  91
1720799220,799:   -157  94  91
1720799220,799:   -122  94  91
1720799220,799:   -125  94  91
1720799220,799:   -162  94  91
1720799220,799:   -181  94  91
1720799220,799:   -160  94  91
1720799220,799:   -141  94  91
1720799220,799:   -170  94  91
1720799220,799:   -234  94  91
1720799220,799:   -271  94  91
1720799220,799:   -250  94  91
1720799220,799:   -207  94  91
1720799220,799:   -203  94  91
1720799220,799:   -239  94  91
1720799220,829:   -258  94  91
1720799220,829:   -223  94  91
1720799220,829:   -166  94  91
1720799220,829:   -147  94  91
1720799220,829:   -177  94  91
1720799220,829:   -206  94  91
1720799220,829:   -186  94  91
1720799220,829:   -134  94  91
1720799220,861:   -102  94  91
1720799220,861:   -108  94  91
1720799220,861:   -114  94  91
1720799220,861:    -85  94  91
1720799220,861:    -38  94  91
1720799220,861:    -21  94  91
1720799220,861:    -50  94  91
1720799220,861:    -84  94  91
1720799220,861:    -79  94  91
1720799220,861:    -46  94  91
1720799220,861:    -32  94  91
1720799220,861:    -53  94  91
1720799220,861:    -74  94  91
1720799220,861:    -61  94  91
1720799220,861:    -25  94  91
1720799220,893:    -11  94  91
1720799220,893:    -36  94  91
1720799220,893:    -67  94  91
1720799220,893:    -64  94  91
1720799220,893:    -37  94  91
1720799220,893:    -25  94  91
1720799220,893:    -46  94  91
1720799220,893:    -69  94  91
1720799220,893:    -57  94  91
1720799220,893:    -24  94  91
1720799220,893:    -16  94  91
1720799220,893:    -55  94  91
1720799220,893:   -102  94  91
1720799220,893:   -106  94  91
1720799220,893:    -69  94  91
1720799220,893:    -43  94  91
1720799220,893:    -66  94  91
1720799220,893:   -109  94  91
1720799220,893:   -115  94  91
1720799220,893:    -74  94  91
1720799220,893:    -38  94  91
1720799220,893:    -57  94  91
1720799220,925:   -111  94  91
1720799220,925:   -133  94  91
1720799220,925:    -95  94  91
1720799220,925:    -42  94  91
1720799220,925:    -35  94  91
1720799220,925:    -69  94  91
1720799220,925:    -81  94  91
1720799220,925:    -38  94  91
1720799220,925:     18  94  91
1720799220,925:     19  94  91
1720799220,925:    -38  94  91
1720799220,925:    -83  94  91
1720799220,925:    -68  94  91
1720799220,925:    -19  94  91
1720799220,925:     -3  94  91
1720799220,973:    -34  94  91
1720799220,973:    -59  94  91
1720799220,973:    -34  94  91
1720799220,973:     12  94  91
1720799220,973:     18  94  91
1720799220,973:    -25  94  91
1720799220,973:    -61  94  91
1720799220,973:    -43  94  91
1720799220,973:      3  94  91
1720799220,973:     18  94  91
1720799220,973:    -13  94  91
1720799220,973:    -36  94  91
1720799220,973:     -5  94  91
1720799220,973:     51  94  91
1720799220,973:     62  94  91
1720799220,973:     11  94  91
1720799220,973:    -43  94  91
1720799220,973:    -39  94  91
1720799220,973:      9  94  91
1720799220,973:     34  94  91
1720799220,973:      9  94  91
1720799220,973:    -21  94  91
1720799220,973:     -5  94  91
1720799221,005:     43  94  91
1720799221,005:     62  94  91
1720799221,005:     21  94  91
1720799221,005:    -31  94  91
1720799221,005:    -37  94  91
1720799221,005:     -2  94  91
1720799221,005:     15  94  91
1720799221,005:    -12  94  91
1720799221,005:    -41  94  91
1720799221,005:    -19  94  91
1720799221,005:     42  94  91
1720799221,005:     75  94  91
1720799221,005:     44  94  91
1720799221,005:     -5  94  91
1720799221,005:     -6  94  91
1720799221,005:     42  94  91
1720799221,005:     77  94  91
1720799221,005:     54  94  91
1720799221,005:      8  94  91
1720799221,005:      6  94  91
1720799221,005:     54  94  91
1720799221,005:     91  94  91
1720799221,035:     67  94  91
1720799221,035:     10  94  91
1720799221,035:    -10  94  91
1720799221,035:     25  94  91
1720799221,035:     65  94  91
1720799221,035:     58  94  91
1720799221,035:     19  94  91
1720799221,035:      9  94  91
1720799221,035:     50  94  91
1720799221,035:     91  94  91
1720799221,035:     74  94  91
1720799221,035:     14  94  91
1720799221,035:    -20  94  91
1720799221,035:      7  94  91
1720799221,035:     54  94  91
1720799221,065:     62  94  91
1720799221,065:     32  94  91
1720799221,065:     24  94  91
1720799221,065:     72  94  91
1720799221,065:    133  94  91
1720799221,065:    143  94  91
1720799221,065:     99  94  91
1720799221,065:     68  94  91
1720799221,065:     97  94  91
1720799221,065:    155  94  91
1720799221,065:    174  94  91
1720799221,065:    133  94  91
1720799221,065:     90  94  91
1720799221,065:     99  94  91
1720799221,065:    140  94  91
1720799221,095:    151  94  91
1720799221,095:    105  94  91
1720799221,095:     54  94  91
1720799221,095:     58  94  91
1720799221,095:    113  94  91
1720799221,095:    162  94  91
1720799221,095:    172  94  91
1720799221,095:    179  94  91
1720799221,127:    225  94  91
1720799221,127:    297  94  91
1720799221,127:    332  94  91
1720799221,127:    302  94  91
1720799221,127:    253  94  91
1720799221,127:    250  94  91
1720799221,127:    291  94  91
1720799221,127:    313  94  91
1720799221,127:    275  94  91
1720799221,127:    214  94  91
1720799221,127:    200  94  91
1720799221,127:    242  94  91
1720799221,127:    275  94  91
1720799221,127:    243  94  91
1720799221,127:    167  94  91
1720799221,127:    121  94  91
1720799221,127:    131  94  91
1720799221,127:    148  94  91
1720799221,127:    115  94  91
1720799221,127:     40  94  91
1720799221,127:    -12  94  91
1720799221,127:    -11  94  91
1720799221,159:      5  94  91
1720799221,159:    -22  94  91
1720799221,159:    -88  94  91
1720799221,159:   -131  94  91
1720799221,159:   -113  94  91
1720799221,159:    -64  94  91
1720799221,159:    -43  94  91
1720799221,159:    -60  94  91
1720799221,159:    -67  94  91
1720799221,159:    -34  94  91
1720799221,159:      9  94  91
1720799221,159:     10  94  91
1720799221,159:    -36  94  91
1720799221,159:    -71  94  91
1720799221,159:    -56  94  91
1720799221,191:    -13  94  91
1720799221,191:      0  94  91
1720799221,191:    -32  94  91
1720799221,191:    -59  94  91
1720799221,191:    -38  94  91
1720799221,191:      9  94  91
1720799221,191:     26  94  91
1720799221,191:     -7  94  91
1720799221,191:    -43  94  91
1720799221,191:    -33  94  91
1720799221,191:     12  94  91
1720799221,191:     35  94  91
1720799221,191:     16  94  91
1720799221,191:     -4  94  91
1720799221,191:     22  94  91
1720799221,222:     76  94  91
1720799221,222:    100  94  91
1720799221,222:     72  94  91
1720799221,222:     40  94  91
1720799221,222:     63  94  91
1720799221,222:    124  94  91
1720799221,222:    147  94  91
1720799221,222:     89  94  91
1720799221,222:      5  94  91
1720799221,222:    -17  94  91
1720799221,222:     21  94  91
1720799221,222:     21  94  91
1720799221,222:    -88  94  91
1720799221,222:   -249  94  91
1720799221,222:   -319  94  91
1720799221,254:   -208  94  91
1720799221,254:     50  94  91
1720799221,254:    403  94  91
1720799221,254:    941  94  91
1720799221,254:   1855  94  91
1720799221,254:   3203  94  91
1720799221,254:   4748  94  91
1720799221,254:   6102  94  91
1720799221,254:   7073  94  91
1720799221,254:   7805  94  91
1720799221,254:   8518  94  91
1720799221,254:   9110  94  91
1720799221,254:   9114  94  91
1720799221,254:   8131  94  91
1720799221,254:   6285  94  91
1720799221,286:   4188  93  92
1720799221,286:   2434  93  92
1720799221,286:   1154  93  92
1720799221,286:     79  93  92
1720799221,286:  -1023  93  92
1720799221,286:  -2051  93  92
1720799221,286:  -2694  93  92
1720799221,286:  -2754  93  92
1720799221,286:  -2333  93  92
1720799221,286:  -1724  93  92
1720799221,286:  -1201  93  92
1720799221,286:   -910  93  92
1720799221,286:   -855  93  92
1720799221,286:   -943  93  92
1720799221,286:  -1045  93  92
1720799221,286:  -1084  93  92
1720799221,286:  -1080  93  92
1720799221,286:  -1102  93  92
1720799221,286:  -1175  93  92
1720799221,286:  -1251  93  92
1720799221,286:  -1266  93  92
1720799221,286:  -1225  93  92
1720799221,286:  -1192  93  92
1720799221,318:  -1200  93  92
1720799221,318:  -1218  93  92
1720799221,318:  -1210  93  92
1720799221,318:  -1197  93  92
1720799221,318:  -1225  93  92
1720799221,318:  -1289  93  92
1720799221,318:  -1319  93  92
1720799221,318:  -1253  93  92
1720799221,318:  -1114  93  92
1720799221,318:   -991  93  92
1720799221,318:   -942  93  92
1720799221,318:   -943  93  92
1720799221,318:   -935  93  92
1720799221,318:   -906  93  92
1720799221,318:   -894  93  92
1720799221,350:   -922  93  92
1720799221,350:   -948  93  92
1720799221,350:   -911  93  92
1720799221,350:   -814  93  92
1720799221,350:   -727  93  92
1720799221,350:   -709  93  92
1720799221,350:   -738  93  92
1720799221,350:   -745  93  92
1720799221,350:   -701  93  92
1720799221,350:   -646  93  92
1720799221,350:   -627  93  92
1720799221,350:   -633  93  92
1720799221,350:   -616  93  92
1720799221,350:   -557  93  92
1720799221,350:   -501  93  92
1720799221,382:   -494  93  92
1720799221,382:   -522  93  92
1720799221,382:   -530  93  92
1720799221,382:   -496  93  92
1720799221,382:   -456  93  92
1720799221,382:   -452  93  92
1720799221,382:   -470  93  92
1720799221,382:   -458  93  92
1720799221,382:   -398  93  92
1720799221,382:   -335  93  92
1720799221,382:   -327  93  92
1720799221,382:   -364  93  92
1720799221,382:   -384  93  92
1720799221,382:   -352  93  92
1720799221,382:   -299  93  92
1720799221,412:   -282  93  92
1720799221,412:   -302  93  92
1720799221,412:   -309  93  92
1720799221,412:   -269  93  92
1720799221,412:   -215  93  92
1720799221,412:   -205  93  92
1720799221,412:   -245  93  92
1720799221,412:   -275  93  92
1720799221,412:   -250  93  92
1720799221,412:   -192  93  92
1720799221,412:   -164  93  92
1720799221,412:   -184  93  92
1720799221,412:   -202  93  92
1720799221,412:   -175  93  92
1720799221,412:   -122  93  92
1720799221,442:   -102  93  92
1720799221,442:   -136  93  92
1720799221,442:   -177  93  92
1720799221,442:   -172  93  92
1720799221,442:   -134  93  92
1720799221,442:   -118  93  92
1720799221,442:   -143  93  92
1720799221,442:   -171  93  92
1720799221,442:   -158  93  92
1720799221,442:   -122  93  92
1720799221,442:   -121  93  92
1720799221,442:   -176  93  92
1720799221,442:   -237  93  92
1720799221,442:   -248  93  92
1720799221,442:   -219  93  92
1720799221,474:   -209  93  92
1720799221,474:   -245  93  92
1720799221,474:   -285  93  92
1720799221,474:   -272  93  92
1720799221,474:   -215  93  92
1720799221,474:   -183  93  92
1720799221,474:   -215  93  92
1720799221,474:   -268  93  92
1720799221,474:   -271  93  92
1720799221,474:   -214  93  92
1720799221,474:   -158  93  92
1720799221,474:   -154  93  92
1720799221,474:   -179  93  92
1720799221,474:   -168  93  92
1720799221,474:   -104  93  92
1720799221,474:    -43  93  92
1720799221,474:    -41  93  92
1720799221,474:    -82  93  92
1720799221,474:    -98  93  92
1720799221,504:    -61  93  92
1720799221,504:    -10  93  92
1720799221,504:      0  93  92
1720799221,504:    -26  93  92
1720799221,504:    -34  93  92
1720799221,504:      0  93  92
1720799221,504:     36  93  92
1720799221,504:     26  93  92
1720799221,504:    -20  93  92
1720799221,504:    -42  93  92
1720799221,504:    -12  93  92
1720799221,504:     35  93  92
1720799221,504:     43  93  92
1720799221,504:     17  93  92
1720799221,504:      9  93  92
1720799221,534:     48  93  92
1720799221,534:     91  93  92
1720799221,534:     82  93  92
1720799221,534:     27  93  92
1720799221,534:     -8  93  92
1720799221,534:     18  93  92
1720799221,534:     70  93  92
1720799221,534:     80  93  92
1720799221,566:     42  93  92
1720799221,566:     15  93  92
1720799221,566:     46  93  92
1720799221,566:     98  93  92
1720799221,566:    103  93  92
1720799221,566:     45  93  92
1720799221,566:    -13  93  92
1720799221,566:     -9  93  92
1720799221,566:     39  93  92
1720799221,566:     63  93  92
1720799221,566:     31  93  92
1720799221,566:     -6  93  92
1720799221,566:      8  93  92
1720799221,566:     63  93  92
1720799221,566:     89  93  92
1720799221,566:     50  93  92
1720799221,566:     -8  93  92
1720799221,566:    -13  93  92
1720799221,566:     37  93  92
1720799221,566:     79  93  92
1720799221,566:     62  93  92
1720799221,566:     17  93  92
1720799221,599:     12  93  92
1720799221,599:     60  93  92
1720799221,599:    104  93  92
1720799221,599:     89  93  92
1720799221,599:     36  93  92
1720799221,599:     12  93  92
1720799221,599:     43  93  92
1720799221,599:     83  93  92
1720799221,599:     80  93  92
1720799221,599:     47  93  92
1720799221,599:     41  93  92
1720799221,599:     81  93  92
1720799221,599:    120  93  92
1720799221,599:    102  93  92
1720799221,599:     41  93  92
1720799221,631:      4  93  92
1720799221,631:     23  93  92
1720799221,631:     54  93  92
1720799221,631:     42  93  92
1720799221,631:     -6  93  92
1720799221,631:    -27  93  92
1720799221,631:     11  93  92
1720799221,631:     69  93  92
1720799221,631:     80  93  92
1720799221,631:     37  93  92
1720799221,631:      2  93  92
1720799221,631:     19  93  92
1720799221,631:     64  93  92
1720799221,631:     78  93  92
1720799221,631:     44  93  92
1720799221,661:     11  93  92
1720799221,661:     20  93  92
1720799221,661:     54  93  92
1720799221,661:     54  93  92
1720799221,661:      7  93  92
1720799221,661:    -42  93  92
1720799221,661:    -46  93  92
1720799221,661:    -19  93  92
1720799221,661:    -13  93  92
1720799221,661:    -45  93  92
1720799221,661:    -75  93  92
1720799221,661:    -59  93  92
1720799221,661:    -15  93  92
1720799221,661:     -2  93  92
1720799221,661:    -43  93  92
1720799221,693:    -89  93  92
1720799221,693:    -84  93  92
1720799221,693:    -34  93  92
1720799221,693:      1  93  92
1720799221,693:    -18  93  92
1720799221,693:    -56  93  92
1720799221,693:    -57  93  92
1720799221,693:    -16  93  92
1720799221,693:     14  93  92
1720799221,693:    -10  93  92
1720799221,693:    -62  93  92
1720799221,693:    -79  93  92
1720799221,693:    -47  93  92
1720799221,693:     -8  93  92
1720799221,693:     -8  93  92
1720799221,725:    -28  93  92
1720799221,725:    -19  93  92
1720799221,725:     30  93  92
1720799221,725:     70  93  92
1720799221,725:     57  93  92
1720799221,725:     12  93  92
1720799221,725:      1  93  92
1720799221,725:     44  93  92
1720799221,725:     90  93  92
1720799221,725:     87  93  92
1720799221,725:     49  93  92
1720799221,725:     41  93  92
1720799221,725:     86  93  92
1720799221,725:    130  93  92
1720799221,725:    112  93  92
1720799221,725:     47  93  92
1720799221,725:     10  93  92
1720799221,725:     38  93  92
1720799221,725:     86  93  92
1720799221,725:     90  93  92
1720799221,725:     57  93  92
1720799221,725:     59  93  92
1720799221,725:    132  93  92
1720799221,757:    221  93  92
1720799221,757:    246  93  92
1720799221,757:    205  93  92
1720799221,757:    174  93  92
1720799221,757:    211  93  92
1720799221,757:    281  93  92
1720799221,757:    304  93  92
1720799221,757:    262  93  92
1720799221,757:    215  93  92
1720799221,757:    225  93  92
1720799221,757:    271  93  92
1720799221,757:    279  93  92
1720799221,757:    225  93  92
1720799221,757:    162  93  92
1720799221,757:    153  93  92
1720799221,787:    186  93  92
1720799221,787:    196  93  92
1720799221,787:    147  93  92
1720799221,787:     84  93  92
1720799221,787:     63  93  92
1720799221,787:     82  93  92
1720799221,787:     77  93  92
1720799221,787:     15  93  92
1720799221,787:    -61  93  92
1720799221,787:    -89  93  92
1720799221,787:    -65  93  92
1720799221,787:    -49  93  92
1720799221,787:    -75  93  92
1720799221,787:   -107  93  92
1720799221,787:    -88  93  92
1720799221,817:    -24  93  92
1720799221,817:     13  93  92
1720799221,817:    -19  93  92
1720799221,817:    -80  93  92
1720799221,817:    -91  93  92
1720799221,817:    -39  93  92
1720799221,817:     13  93  92
1720799221,817:      4  93  92
1720799221,817:    -43  93  92
1720799221,817:    -56  93  92
1720799221,817:     -9  93  92
1720799221,817:     43  93  92
1720799221,817:     34  93  92
1720799221,817:    -21  93  92
1720799221,817:    -48  93  92
1720799221,848:    -10  93  92
1720799221,848:     46  93  92
1720799221,848:     56  93  92
1720799221,848:     18  93  92
1720799221,848:     -5  93  92
1720799221,848:     27  93  92
1720799221,848:     77  93  92
1720799221,848:     80  93  92
1720799221,848:     31  93  92
1720799221,848:     -5  93  92
1720799221,848:     26  93  92
1720799221,848:    100  93  92
1720799221,848:    151  93  92
1720799221,848:    151  93  92
1720799221,848:    128  93  92
1720799221,878:    117  93  92
1720799221,878:    111  93  92
1720799221,878:     82  93  92
1720799221,878:     18  93  92
1720799221,878:    -68  93  92
1720799221,878:   -160  93  92
1720799221,878:   -255  93  92
1720799221,878:   -330  93  92
1720799221,878:   -314  93  92
1720799221,878:   -128  93  92
1720799221,878:    276  93  92
1720799221,878:    936  93  92
1720799221,878:   1905  93  92
1720799221,878:   3208  93  92
1720799221,878:   4730  93  92
1720799221,909:   6203  93  92
1720799221,909:   7381  93  92
1720799221,909:   8234  93  92
1720799221,909:   8901  93  92
1720799221,909:   9398  93  92
1720799221,909:   9421  93  92
1720799221,909:   8559  93  92
1720799221,909:   6761  93  92
1720799221,909:   4524  93  92
1720799221,909:   2550  93  92
1720799221,909:   1167  93  92
1720799221,909:    155  93  92
1720799221,909:   -869  93  92
1720799221,909:  -1949  93  92
1720799221,909:  -2728  93  92
1720799221,940:  -2854  94  94
1720799221,940:  -2376  94  94
1720799221,940:  -1701  94  94
1720799221,940:  -1222  94  94
1720799221,940:  -1042  94  94
1720799221,940:  -1027  94  94
1720799221,940:  -1040  94  94
1720799221,971:  -1060  94  94
1720799221,971:  -1121  94  94
1720799221,971:  -1209  94  94
1720799221,971:  -1265  94  94
1720799221,971:  -1276  94  94
1720799221,971:  -1287  94  94
1720799221,971:  -1335  94  94
1720799221,971:  -1390  94  94
1720799221,971:  -1395  94  94
1720799221,971:  -1338  94  94
1720799221,971:  -1274  94  94
1720799221,971:  -1264  94  94
1720799221,971:  -1309  94  94
1720799221,971:  -1351  94  94
1720799221,971:  -1347  94  94
1720799221,971:  -1309  94  94
1720799221,971:  -1273  94  94
1720799221,971:  -1235  94  94
1720799221,971:  -1166  94  94
1720799221,971:  -1062  94  94
1720799221,971:   -975  94  94
1720799221,971:   -959  94  94
1720799221,971:   -997  94  94
1720799222,003:  -1021  94  94
1720799222,003:   -985  94  94
1720799222,003:   -916  94  94
1720799222,003:   -877  94  94
1720799222,003:   -882  94  94
1720799222,003:   -882  94  94
1720799222,003:   -841  94  94
1720799222,003:   -786  94  94
1720799222,003:   -775  94  94
1720799222,003:   -815  94  94
1720799222,003:   -851  94  94
1720799222,003:   -826  94  94
1720799222,003:   -759  94  94
1720799222,003:   -717  94  94
1720799222,003:   -726  94  94
1720799222,035:   -741  94  94
1720799222,035:   -708  94  94
1720799222,035:   -636  94  94
1720799222,035:   -590  94  94
1720799222,035:   -604  94  94
1720799222,035:   -636  94  94
1720799222,035:   -624  94  94
1720799222,035:   -564  94  94
1720799222,035:   -518  94  94
1720799222,035:   -527  94  94
1720799222,035:   -560  94  94
1720799222,035:   -553  94  94
1720799222,035:   -498  94  94
1720799222,035:   -447  94  94
1720799222,035:   -441  94  94
1720799222,035:   -455  94  94
1720799222,035:   -436  94  94
1720799222,035:   -379  94  94
1720799222,035:   -338  94  94
1720799222,035:   -353  94  94
1720799222,035:   -396  94  94
1720799222,035:   -402  94  94
1720799222,067:   -356  94  94
1720799222,067:   -308  94  94
1720799222,067:   -306  94  94
1720799222,067:   -330  94  94
1720799222,067:   -323  94  94
1720799222,067:   -265  94  94
1720799222,067:   -206  94  94
1720799222,067:   -202  94  94
1720799222,067:   -245  94  94
1720799222,067:   -271  94  94
1720799222,067:   -246  94  94
1720799222,067:   -203  94  94
1720799222,067:   -197  94  94
1720799222,067:   -234  94  94
1720799222,067:   -263  94  94
1720799222,099:   -250  94  94
1720799222,099:   -223  94  94
1720799222,099:   -232  94  94
1720799222,099:   -283  94  94
1720799222,099:   -329  94  94
1720799222,099:   -329  94  94
1720799222,099:   -302  94  94
1720799222,099:   -294  94  94
1720799222,099:   -316  94  94
1720799222,099:   -329  94  94
1720799222,099:   -304  94  94
1720799222,099:   -269  94  94
1720799222,099:   -271  94  94
1720799222,099:   -313  94  94
1720799222,099:   -342  94  94
1720799222,131:   -316  94  94
1720799222,131:   -262  94  94
1720799222,131:   -237  94  94
1720799222,131:   -255  94  94
1720799222,131:   -266  94  94
1720799222,131:   -224  94  94
1720799222,131:   -151  94  94
1720799222,131:   -113  94  94
1720799222,131:   -140  94  94
1720799222,131:   -180  94  94
1720799222,131:   -171  94  94
1720799222,131:   -115  94  94
1720799222,131:    -75  94  94
1720799222,131:    -89  94  94
1720799222,131:   -120  94  94
1720799222,166:   -107  94  94
1720799222,166:    -48  94  94
1720799222,166:     -8  94  94
1720799222,166:    -32  94  94
1720799222,166:    -85  94  94
1720799222,166:    -97  94  94
1720799222,166:    -50  94  94
1720799222,166:     -2  94  94
1720799222,166:     -5  94  94
1720799222,166:    -41  94  94
1720799222,166:    -45  94  94
1720799222,166:      0  94  94
1720799222,166:     42  94  94
1720799222,166:     30  94  94
1720799222,166:    -19  94  94
1720799222,195:    -39  94  94
1720799222,195:     -5  94  94
1720799222,195:     38  94  94
1720799222,195:     37  94  94
1720799222,195:      2  94  94
1720799222,195:     -4  94  94
1720799222,195:     41  94  94
1720799222,195:     91  94  94
1720799222,195:     85  94  94
1720799222,195:     32  94  94
1720799222,195:      0  94  94
1720799222,195:     26  94  94
1720799222,195:     72  94  94
1720799222,195:     76  94  94
1720799222,195:     37  94  94
1720799222,227:     15  94  94
1720799222,227:     45  94  94
1720799222,227:     91  94  94
1720799222,227:     86  94  94
1720799222,227:     29  94  94
1720799222,227:    -15  94  94
1720799222,227:      4  94  94
1720799222,227:     57  94  94
1720799222,227:     75  94  94
1720799222,227:     43  94  94
1720799222,227:     14  94  94
1720799222,227:     40  94  94
1720799222,227:     95  94  94
1720799222,227:    110  94  94
1720799222,227:     68  94  94
1720799222,227:     23  94  94
1720799222,227:     32  94  94
1720799222,227:     79  94  94
1720799222,227:    102  94  94
1720799222,227:     80  94  94
1720799222,227:     59  94  94
1720799222,227:     89  94  94
1720799222,227:    149  94  94
1720799222,259:    172  94  94
1720799222,259:    130  94  94
1720799222,259:     74  94  94
1720799222,259:     67  94  94
1720799222,259:    107  94  94
1720799222,259:    135  94  94
1720799222,259:    114  94  94
1720799222,259:     82  94  94
1720799222,259:     94  94  94
1720799222,259:    147  94  94
1720799222,259:    177  94  94
1720799222,259:    141  94  94
1720799222,259:     76  94  94
1720799222,259:     48  94  94
1720799222,259:     70  94  94
1720799222,291:     89  94  94
1720799222,291:     58  94  94
1720799222,291:      5  94  94
1720799222,291:     -6  94  94
1720799222,291:     39  94  94
1720799222,291:     81  94  94
1720799222,291:     61  94  94
1720799222,291:     -2  94  94
1720799222,291:    -36  94  94
1720799222,291:    -11  94  94
1720799222,291:     26  94  94
1720799222,291:     13  94  94
1720799222,291:    -42  94  94
1720799222,291:    -68  94  94
1720799222,291:    -32  94  94
1720799222,320:     20  94  94
1720799222,320:     18  94  94
1720799222,320:    -42  94  94
1720799222,320:    -88  94  94
1720799222,320:    -73  94  94
1720799222,320:    -27  94  94
1720799222,320:    -16  94  94
1720799222,320:    -49  94  94
1720799222,320:    -69  94  94
1720799222,320:    -33  94  94
1720799222,320:     23  94  94
1720799222,320:     32  94  94
1720799222,320:    -13  94  94
1720799222,320:    -50  94  94
1720799222,320:    -29  94  94
1720799222,350:     20  94  94
1720799222,350:     30  94  94
1720799222,350:    -13  94  94
1720799222,350:    -48  94  94
1720799222,350:    -26  94  94
1720799222,350:     23  94  94
1720799222,350:     24  94  94
1720799222,350:    -39  94  94
1720799222,350:   -101  94  94
1720799222,350:    -98  94  94
1720799222,350:    -46  94  94
1720799222,350:    -18  94  94
1720799222,350:    -44  94  94
1720799222,350:    -76  94  94
1720799222,350:    -54  94  94
1720799222,382:      5  94  94
1720799222,382:     29  94  94
1720799222,382:    -15  94  94
1720799222,382:    -72  94  94
1720799222,382:    -70  94  94
1720799222,382:    -12  94  94
1720799222,382:     30  94  94
1720799222,382:     12  94  94
1720799222,382:    -26  94  94
1720799222,382:    -14  94  94
1720799222,382:     48  94  94
1720799222,382:     85  94  94
1720799222,382:     44  94  94
1720799222,382:    -29  94  94
1720799222,382:    -53  94  94
1720799222,382:    -14  94  94
1720799222,382:     21  94  94
1720799222,382:     -4  94  94
1720799222,382:    -55  94  94
1720799222,382:    -48  94  94
1720799222,382:     32  94  94
1720799222,382:    110  94  94
1720799222,411:    111  94  94
1720799222,411:     63  94  94
1720799222,411:     54  94  94
1720799222,411:    118  94  94
1720799222,411:    191  94  94
1720799222,411:    199  94  94
1720799222,411:    152  94  94
1720799222,411:    127  94  94
1720799222,443:    162  94  94
1720799222,443:    203  94  94
1720799222,443:    179  94  94
1720799222,443:    101  94  94
1720799222,443:     51  94  94
1720799222,443:     71  94  94
1720799222,443:    114  94  94
1720799222,443:    104  94  94
1720799222,443:     40  94  94
1720799222,443:     -9  94  94
1720799222,443:      2  94  94
1720799222,443:     29  94  94
1720799222,443:     -2  94  94
1720799222,443:    -96  94  94
1720799222,443:   -175  94  94
1720799222,443:   -178  94  94
1720799222,443:   -137  94  94
1720799222,443:   -131  94  94
1720799222,443:   -183  94  94
1720799222,443:   -229  94  94
1720799222,443:   -204  94  94
1720799222,443:   -133  94  94
1720799222,476:   -105  94  94
1720799222,476:   -156  94  94
1720799222,476:   -225  94  94
1720799222,476:   -230  94  94
1720799222,476:   -173  94  94
1720799222,476:   -128  94  94
1720799222,476:   -147  94  94
1720799222,476:   -190  94  94
1720799222,476:   -185  94  94
1720799222,476:   -127  94  94
1720799222,476:    -85  94  94
1720799222,476:   -112  94  94
1720799222,476:   -169  94  94
1720799222,506:   -180  94  94
1720799222,506:   -130  94  94
1720799222,506:    -80  94  94
1720799222,506:    -87  94  94
1720799222,506:   -122  94  94
1720799222,506:   -118  94  94
1720799222,506:    -63  94  94
1720799222,506:    -19  94  94
1720799222,506:    -43  94  94
1720799222,506:   -102  94  94
1720799222,506:   -119  94  94
1720799222,506:    -68  94  94
1720799222,506:     -2  94  94
1720799222,506:     14  94  94
1720799222,506:     -5  94  94
1720799222,538:      4  94  94
1720799222,538:     45  94  94
1720799222,538:     54  94  94
1720799222,538:    -14  94  94
1720799222,538:   -119  94  94
1720799222,538:   -184  94  94
1720799222,538:   -208  94  94
1720799222,538:   -267  94  94
1720799222,538:   -407  94  94
1720799222,538:   -547  94  94
1720799222,538:   -537  94  94
1720799222,538:   -301  94  94
1720799222,538:    137  94  94
1720799222,538:    774  94  94
1720799222,538:   1723  94  94
1720799222,570:   3083  94  94
1720799222,570:   4724  94  94
1720799222,570:   6290  94  94
1720799222,570:   7475  94  94
1720799222,570:   8295  94  94
1720799222,570:   8972  94  94
1720799222,570:   9529  94  94
1720799222,570:   9590  94  94
1720799222,570:   8693  94  94
1720799222,570:   6823  94  94
1720799222,570:   4565  94  94
1720799222,570:   2633  94  94
1720799222,570:   1289  94  94
1720799222,570:    253  94  94
1720799222,570:   -833  94  94
1720799222,602:  -1936  91  93
1720799222,602:  -2679  91  93
1720799222,602:  -2775  91  93
1720799222,602:  -2336  91  93
1720799222,602:  -1744  91  93
1720799222,602:  -1305  91  93
1720799222,602:  -1084  91  93
1720799222,602:  -1010  91  93
1720799222,602:  -1020  91  93
1720799222,602:  -1094  91  93
1720799222,602:  -1192  91  93
1720799222,602:  -1259  91  93
1720799222,602:  -1284  91  93
1720799222,602:  -1317  91  93
1720799222,602:  -1403  91  93
1720799222,602:  -1501  91  93
1720799222,602:  -1536  91  93
1720799222,602:  -1493  91  93
1720799222,602:  -1431  91  93
1720799222,602:  -1411  91  93
1720799222,602:  -1427  91  93
1720799222,602:  -1433  91  93
1720799222,634:  -1410  91  93
1720799222,634:  -1385  91  93
1720799222,634:  -1385  91  93
1720799222,634:  -1378  91  93
1720799222,634:  -1311  91  93
1720799222,634:  -1183  91  93
1720799222,634:  -1057  91  93
1720799222,634:   -999  91  93
1720799222,665:  -1002  91  93
1720799222,665:  -1006  91  93
1720799222,665:   -974  91  93
1720799222,665:   -934  91  93
1720799222,665:   -927  91  93
1720799222,665:   -945  91  93
1720799222,665:   -931  91  93
1720799222,665:   -861  91  93
1720799222,665:   -775  91  93
1720799222,665:   -737  91  93
1720799222,665:   -757  91  93
1720799222,665:   -776  91  93
1720799222,665:   -746  91  93
1720799222,665:   -687  91  93
1720799222,665:   -657  91  93
1720799222,665:   -670  91  93
1720799222,665:   -679  91  93
1720799222,665:   -636  91  93
1720799222,665:   -562  91  93
1720799222,665:   -521  91  93
1720799222,665:   -535  91  93
1720799222,665:   -556  91  93
1720799222,697:   -532  91  93
1720799222,697:   -474  91  93
1720799222,697:   -444  91  93
1720799222,697:   -468  91  93
1720799222,697:   -499  91  93
1720799222,697:   -477  91  93
1720799222,697:   -411  91  93
1720799222,697:   -363  91  93
1720799222,697:   -369  91  93
1720799222,697:   -392  91  93
1720799222,697:   -375  91  93
1720799222,697:   -318  91  93
1720799222,697:   -279  91  93
1720799222,697:   -291  91  93
1720799222,697:   -320  91  93
1720799222,728:   -313  91  93
1720799222,728:   -270  91  93
1720799222,728:   -243  91  93
1720799222,728:   -264  91  93
1720799222,728:   -297  91  93
1720799222,728:   -286  91  93
1720799222,728:   -232  91  93
1720799222,728:   -197  91  93
1720799222,728:   -218  91  93
1720799222,728:   -259  91  93
1720799222,728:   -249  91  93
1720799222,728:   -182  91  93
1720799222,728:   -124  91  93
1720799222,728:   -134  91  93
1720799222,728:   -189  91  93
1720799222,760:   -218  91  93
1720799222,760:   -193  91  93
1720799222,760:   -166  91  93
1720799222,760:   -199  91  93
1720799222,760:   -278  91  93
1720799222,760:   -332  91  93
1720799222,760:   -321  91  93
1720799222,760:   -282  91  93
1720799222,760:   -275  91  93
1720799222,760:   -302  91  93
1720799222,760:   -309  91  93
1720799222,760:   -266  91  93
1720799222,760:   -215  91  93
1720799222,760:   -212  91  93
1720799222,760:   -257  91  93
1720799222,760:   -286  91  93
1720799222,760:   -256  91  93
1720799222,760:   -196  91  93
1720799222,760:   -169  91  93
1720799222,760:   -188  91  93
1720799222,760:   -201  91  93
1720799222,760:   -165  91  93
1720799222,760:   -103  91  93
1720799222,791:    -77  91  93
1720799222,791:   -103  91  93
1720799222,791:   -133  91  93
1720799222,791:   -116  91  93
1720799222,791:    -60  91  93
1720799222,791:    -18  91  93
1720799222,791:    -12  91  93
1720799222,791:    -10  91  93
1720799222,791:     27  91  93
1720799222,791:     84  91  93
1720799222,791:    105  91  93
1720799222,791:     73  91  93
1720799222,791:     28  91  93
1720799222,791:     22  91  93
1720799222,791:     50  91  93
1720799222,823:     63  91  93
1720799222,823:     36  91  93
1720799222,823:      4  91  93
1720799222,823:     18  91  93
1720799222,823:     70  91  93
1720799222,823:    106  91  93
1720799222,823:     91  91  93
1720799222,823:     54  91  93
1720799222,823:     48  91  93
1720799222,823:     78  91  93
1720799222,823:    101  91  93
1720799222,823:     84  91  93
1720799222,823:     53  91  93
1720799222,823:     56  91  93
1720799222,823:     94  91  93
1720799222,854:    117  91  93
1720799222,854:     90  91  93
1720799222,854:     42  91  93
1720799222,854:     36  91  93
1720799222,854:     84  91  93
1720799222,854:    131  91  93
1720799222,854:    127  91  93
1720799222,885:     88  91  93
1720799222,885:     79  91  93
1720799222,885:    122  91  93
1720799222,885:    171  91  93
1720799222,885:    167  91  93
1720799222,885:    117  91  93
1720799222,885:     90  91  93
1720799222,885:    123  91  93
1720799222,885:    178  91  93
1720799222,885:    191  91  93
1720799222,885:    156  91  93
1720799222,885:    133  91  93
1720799222,885:    159  91  93
1720799222,885:    200  91  93
1720799222,885:    196  91  93
1720799222,885:    140  91  93
1720799222,885:     96  91  93
1720799222,885:    107  91  93
1720799222,885:    147  91  93
1720799222,885:    154  91  93
1720799222,885:    120  91  93
1720799222,885:    103  91  93
1720799222,885:    140  91  93
1720799222,915:    194  91  93
1720799222,915:    201  91  93
1720799222,915:    149  91  93
1720799222,915:    103  91  93
1720799222,915:    119  91  93
1720799222,915:    170  91  93
1720799222,915:    192  91  93
1720799222,915:    164  91  93
1720799222,915:    134  91  93
1720799222,915:    150  91  93
1720799222,915:    191  91  93
1720799222,915:    194  91  93
1720799222,915:    142  91  93
1720799222,915:     85  91  93
1720799222,915:     78  91  93
1720799222,945:    111  91  93
1720799222,945:    127  91  93
1720799222,945:    100  91  93
1720799222,945:     72  91  93
1720799222,945:     91  91  93
1720799222,945:    146  91  93
1720799222,945:    175  91  93
1720799222,945:    146  91  93
1720799222,945:     92  91  93
1720799222,945:     74  91  93
1720799222,945:     99  91  93
1720799222,945:    122  91  93
1720799222,945:    106  91  93
1720799222,945:     73  91  93
1720799222,945:     75  91  93
1720799222,975:    118  91  93
1720799222,975:    152  91  93
1720799222,975:    135  91  93
1720799222,975:     90  91  93
1720799222,975:     76  91  93
1720799222,975:    112  91  93
1720799222,975:    151  91  93
1720799222,975:    141  91  93
1720799222,975:     94  91  93
1720799222,975:     71  91  93
1720799222,975:    105  91  93
1720799222,975:    150  91  93
1720799222,975:    146  91  93
1720799222,975:     94  91  93
1720799222,975:     57  91  93
1720799223,006:     73  91  93
1720799223,006:    113  91  93
1720799223,006:    120  91  93
1720799223,006:     87  91  93
1720799223,006:     65  91  93
1720799223,006:     88  91  93
1720799223,006:    125  91  93
1720799223,006:    121  91  93
1720799223,006:     78  91  93
1720799223,006:     52  91  93
1720799223,006:     82  91  93
1720799223,006:    134  91  93
1720799223,006:    147  91  93
1720799223,006:    110  91  93
1720799223,006:     77  91  93
1720799223,036:     89  91  93
1720799223,036:    120  91  93
1720799223,036:    111  91  93
1720799223,036:     49  91  93
1720799223,036:    -12  91  93
1720799223,036:    -19  91  93
1720799223,036:     13  91  93
1720799223,036:     28  91  93
1720799223,036:      7  91  93
1720799223,036:    -12  91  93
