timestamp: ADC HeartRate4sAverage HeartRate30sAverage
1720772437,607:  -1506 100  93
1720772437,607:  -1481 100  93
1720772437,607:  -1531 100  93
1720772437,607:  -1601 100  93
1720772437,607:  -1613 100  93
1720772437,607:  -1556 100  93
1720772437,607:  -1500 100  93
1720772437,607:  -1485 100  93
1720772437,607:  -1464 100  93
1720772437,607:  -1372 100  93
1720772437,607:  -1232 100  93
1720772437,607:  -1150 100  93
1720772437,607:  -1190 100  93
1720772437,607:  -1296 100  93
1720772437,607:  -1362 100  93
1720772437,639:  -1362 100  93
1720772437,639:  -1379 100  93
1720772437,639:  -1486 100  93
1720772437,639:  -1638 100  93
1720772437,639:  -1707 100  93
1720772437,639:  -1637 100  93
1720772437,639:  -1508 100  93
1720772437,639:  -1437 100  93
1720772437,639:  -1438 100  93
1720772437,639:  -1422 100  93
1720772437,639:  -1323 100  93
1720772437,639:  -1204 100  93
1720772437,639:  -1179 100  93
1720772437,639:  -1266 100  93
1720772437,639:  -1351 100  93
1720772437,672:  -1321 100  93
1720772437,672:  -1212 100  93
1720772437,672:  -1158 100  93
1720772437,672:  -1218 100  93
1720772437,672:  -1295 100  93
1720772437,672:  -1249 100  93
1720772437,672:  -1078 100  93
1720772437,672:   -908 100  93
1720772437,672:   -844 100  93
1720772437,672:   -866 100  93
1720772437,672:   -920 100  93
1720772437,672:  -1032 100  93
1720772437,672:  -1292 100  93
1720772437,672:  -1732 100  93
1720772437,672:  -2265 100  93
1720772437,703:  -2770 100  93
1720772437,703:  -3184 100  93
1720772437,703:  -3470 100  93
1720772437,703:  -3525 100  93
1720772437,703:  -3196 100  93
1720772437,703:  -2395 100  93
1720772437,703:  -1136 100  93
1720772437,703:    557 100  93
1720772437,703:   2706 100  93
1720772437,703:   5282 100  93
1720772437,703:   8093 100  93
1720772437,703:  10841 100  93
1720772437,703:  13329 100  93
1720772437,703:  15537 100  93
1720772437,703:  17460 100  93
1720772437,703:  18937 100  93
1720772437,703:  19708 100  93
1720772437,703:  19630 100  93
1720772437,703:  18756 100  93
1720772437,703:  17181 100  93
1720772437,703:  14920 100  93
1720772437,703:  12014 100  93
1720772437,703:   8753 100  93
1720772437,735:   5630 104  97
1720772437,735:   3014 104  97
1720772437,735:    900 104  97
1720772437,735:   -935 104  97
1720772437,735:  -2565 104  97
1720772437,735:  -3754 104  97
1720772437,735:  -4226 104  97
1720772437,735:  -4020 104  97
1720772437,735:  -3543 104  97
1720772437,735:  -3257 104  97
1720772437,735:  -3354 104  97
1720772437,735:  -3716 104  97
1720772437,735:  -4112 104  97
1720772437,735:  -4426 104  97
1720772437,735:  -4689 104  97
1720772437,766:  -4968 104  97
1720772437,766:  -5267 104  97
1720772437,766:  -5505 104  97
1720772437,766:  -5590 104  97
1720772437,766:  -5491 104  97
1720772437,766:  -5273 104  97
1720772437,766:  -5039 104  97
1720772437,798:  -4855 104  97
1720772437,798:  -4721 104  97
1720772437,798:  -4627 104  97
1720772437,798:  -4607 104  97
1720772437,798:  -4707 104  97
1720772437,798:  -4892 104  97
1720772437,798:  -5023 104  97
1720772437,798:  -4965 104  97
1720772437,798:  -4717 104  97
1720772437,798:  -4428 104  97
1720772437,798:  -4259 104  97
1720772437,798:  -4236 104  97
1720772437,798:  -4259 104  97
1720772437,798:  -4230 104  97
1720772437,798:  -4146 104  97
1720772437,798:  -4071 104  97
1720772437,798:  -4035 104  97
1720772437,798:  -4015 104  97
1720772437,798:  -3977 104  97
1720772437,798:  -3918 104  97
1720772437,798:  -3851 104  97
1720772437,798:  -3784 104  97
1720772437,798:  -3727 104  97
1720772437,829:  -3692 104  97
1720772437,829:  -3682 104  97
1720772437,829:  -3661 104  97
1720772437,829:  -3584 104  97
1720772437,829:  -3450 104  97
1720772437,829:  -3303 104  97
1720772437,829:  -3173 104  97
1720772437,829:  -3041 104  97
1720772437,829:  -2885 104  97
1720772437,829:  -2740 104  97
1720772437,829:  -2672 104  97
1720772437,829:  -2689 104  97
1720772437,829:  -2708 104  97
1720772437,829:  -2644 104  97
1720772437,829:  -2520 104  97
1720772437,859:  -2449 104  97
1720772437,859:  -2500 104  97
1720772437,859:  -2606 104  97
1720772437,859:  -2634 104  97
1720772437,859:  -2532 104  97
1720772437,859:  -2381 104  97
1720772437,859:  -2295 104  97
1720772437,859:  -2292 104  97
1720772437,859:  -2294 104  97
1720772437,859:  -2233 104  97
1720772437,859:  -2130 104  97
1720772437,859:  -2042 104  97
1720772437,859:  -1977 104  97
1720772437,859:  -1878 104  97
1720772437,859:  -1714 104  97
1720772437,890:  -1542 104  97
1720772437,890:  -1438 104  97
1720772437,890:  -1409 104  97
1720772437,890:  -1384 104  97
1720772437,890:  -1318 104  97
1720772437,890:  -1264 104  97
1720772437,890:  -1305 104  97
1720772437,890:  -1439 104  97
1720772437,890:  -1567 104  97
1720772437,890:  -1615 104  97
1720772437,890:  -1627 104  97
1720772437,890:  -1685 104  97
1720772437,890:  -1788 104  97
1720772437,890:  -1828 104  97
1720772437,890:  -1729 104  97
1720772437,922:  -1555 104  97
1720772437,922:  -1446 104  97
1720772437,922:  -1462 104  97
1720772437,922:  -1521 104  97
1720772437,922:  -1512 104  97
1720772437,922:  -1421 104  97
1720772437,922:  -1328 104  97
1720772437,922:  -1298 104  97
1720772437,922:  -1306 104  97
1720772437,922:  -1288 104  97
1720772437,922:  -1230 104  97
1720772437,922:  -1164 104  97
1720772437,922:  -1111 104  97
1720772437,922:  -1039 104  97
1720772437,922:   -917 104  97
1720772437,970:   -772 104  97
1720772437,970:   -673 104  97
1720772437,970:   -651 104  97
1720772437,970:   -644 104  97
1720772437,970:   -562 104  97
1720772437,970:   -396 104  97
1720772437,970:   -224 104  97
1720772437,970:   -130 104  97
1720772437,970:   -109 104  97
1720772437,970:    -85 104  97
1720772437,970:    -12 104  97
1720772437,970:     80 104  97
1720772437,970:    142 104  97
1720772437,970:    184 104  97
1720772437,970:    248 104  97
1720772437,970:    328 104  97
1720772437,970:    366 104  97
1720772437,970:    336 104  97
1720772437,970:    312 104  97
1720772437,970:    386 104  97
1720772437,970:    535 104  97
1720772437,970:    623 104  97
1720772437,970:    564 104  97
1720772437,970:    452 104  97
1720772437,970:    457 104  97
1720772437,970:    619 104  97
1720772437,970:    776 104  97
1720772437,970:    754 104  97
1720772437,970:    578 104  97
1720772437,970:    450 104  97
1720772438,002:    501 104  97
1720772438,002:    646 104  97
1720772438,002:    693 104  97
1720772438,002:    577 104  97
1720772438,002:    416 104  97
1720772438,002:    359 104  97
1720772438,002:    414 104  97
1720772438,002:    471 104  97
1720772438,002:    448 104  97
1720772438,002:    383 104  97
1720772438,002:    359 104  97
1720772438,002:    389 104  97
1720772438,002:    420 104  97
1720772438,002:    410 104  97
1720772438,002:    385 104  97
1720772438,034:    400 104  97
1720772438,034:    457 104  97
1720772438,034:    505 104  97
1720772438,034:    503 104  97
1720772438,034:    471 104  97
1720772438,034:    461 104  97
1720772438,034:    493 104  97
1720772438,034:    531 104  97
1720772438,034:    529 104  97
1720772438,034:    491 104  97
1720772438,034:    462 104  97
1720772438,034:    466 104  97
1720772438,034:    477 104  97
1720772438,034:    453 104  97
1720772438,034:    403 104  97
1720772438,066:    386 104  97
1720772438,066:    434 104  97
1720772438,066:    504 104  97
1720772438,066:    524 104  97
1720772438,066:    475 104  97
1720772438,066:    421 104  97
1720772438,066:    423 104  97
1720772438,066:    470 104  97
1720772438,066:    504 104  97
1720772438,066:    497 104  97
1720772438,066:    479 104  97
1720772438,066:    483 104  97
1720772438,066:    494 104  97
1720772438,066:    475 104  97
1720772438,066:    428 104  97
1720772438,098:    394 104  97
1720772438,098:    398 104  97
1720772438,098:    416 104  97
1720772438,098:    412 104  97
1720772438,098:    389 104  97
1720772438,098:    383 104  97
1720772438,098:    404 104  97
1720772438,098:    431 104  97
1720772438,098:    447 104  97
1720772438,098:    466 104  97
1720772438,098:    493 104  97
1720772438,098:    486 104  97
1720772438,098:    392 104  97
1720772438,098:    221 104  97
1720772438,098:     60 104  97
1720772438,146:     -8 104  97
1720772438,146:      9 104  97
1720772438,146:     14 104  97
1720772438,146:    -55 104  97
1720772438,146:   -152 104  97
1720772438,146:   -176 104  97
1720772438,146:    -90 104  97
1720772438,146:     35 104  97
1720772438,146:     99 104  97
1720772438,146:     92 104  97
1720772438,146:     90 104  97
1720772438,146:    148 104  97
1720772438,146:    223 104  97
1720772438,146:    229 104  97
1720772438,146:    152 104  97
1720772438,146:     80 104  97
1720772438,146:     94 104  97
1720772438,146:    162 104  97
1720772438,146:    184 104  97
1720772438,146:    129 104  97
1720772438,146:     75 104  97
1720772438,146:    105 104  97
1720772438,146:    193 104  97
1720772438,146:    240 104  97
1720772438,146:    204 104  97
1720772438,146:    154 104  97
1720772438,146:    164 104  97
1720772438,177:    210 104  97
1720772438,177:    199 104  97
1720772438,177:    105 104  97
1720772438,177:     14 104  97
1720772438,177:     19 104  97
1720772438,177:    101 104  97
1720772438,177:    148 104  97
1720772438,177:     98 104  97
1720772438,177:     15 104  97
1720772438,177:      0 104  97
1720772438,177:     58 104  97
1720772438,177:     95 104  97
1720772438,177:     47 104  97
1720772438,177:    -35 104  97
1720772438,177:    -43 104  97
1720772438,209:     51 104  97
1720772438,209:    163 104  97
1720772438,209:    204 104  97
1720772438,209:    191 104  97
1720772438,209:    215 104  97
1720772438,209:    309 104  97
1720772438,209:    392 104  97
1720772438,209:    368 104  97
1720772438,209:    237 104  97
1720772438,209:     98 104  97
1720772438,209:     37 104  97
1720772438,209:     38 104  97
1720772438,209:     33 104  97
1720772438,209:    -13 104  97
1720772438,209:    -68 104  97
1720772438,240:    -94 104  97
1720772438,240:    -96 104  97
1720772438,240:   -100 104  97
1720772438,240:   -108 104  97
1720772438,240:   -100 104  97
1720772438,240:    -78 104  97
1720772438,240:    -81 104  97
1720772438,240:   -128 104  97
1720772438,240:   -180 104  97
1720772438,240:   -168 104  97
1720772438,240:    -81 104  97
1720772438,240:     17 104  97
1720772438,240:     55 104  97
1720772438,240:     30 104  97
1720772438,240:      5 104  97
1720772438,240:     24 104  97
1720772438,240:     60 104  97
1720772438,240:     52 104  97
1720772438,240:    -11 104  97
1720772438,240:    -80 104  97
1720772438,240:    -96 104  97
1720772438,240:    -54 104  97
1720772438,272:      5 104  97
1720772438,272:     50 104  97
1720772438,272:     94 104  97
1720772438,272:    174 104  97
1720772438,272:    316 104  97
1720772438,272:    492 104  97
1720772438,272:    604 104  97
1720772438,272:    533 104  97
1720772438,272:    225 104  97
1720772438,272:   -271 104  97
1720772438,272:   -837 104  97
1720772438,272:  -1389 104  97
1720772438,272:  -1899 104  97
1720772438,272:  -2321 104  97
1720772438,272:  -2522 104  97
1720772438,304:  -2326 104  97
1720772438,304:  -1626 104  97
1720772438,304:   -424 104  97
1720772438,304:   1281 104  97
1720772438,304:   3518 104  97
1720772438,304:   6244 104  97
1720772438,304:   9217 104  97
1720772438,304:  12081 104  97
1720772438,304:  14620 104  97
1720772438,304:  16861 104  97
1720772438,304:  18888 104  97
1720772438,304:  20574 104  97
1720772438,304:  21609 104  97
1720772438,304:  21782 104  97
1720772438,304:  21140 104  97
1720772438,336:  19834 100  99
1720772438,336:  17878 100  99
1720772438,336:  15195 100  99
1720772438,336:  11911 100  99
1720772438,336:   8474 100  99
1720772438,336:   5382 100  99
1720772438,336:   2821 100  99
1720772438,336:    639 100  99
1720772438,336:  -1310 100  99
1720772438,336:  -2887 100  99
1720772438,336:  -3791 100  99
1720772438,336:  -3916 100  99
1720772438,336:  -3521 100  99
1720772438,336:  -3041 100  99
1720772438,336:  -2790 100  99
1720772438,368:  -2823 100  99
1720772438,368:  -3032 100  99
1720772438,368:  -3301 100  99
1720772438,368:  -3583 100  99
1720772438,368:  -3880 100  99
1720772438,368:  -4194 100  99
1720772438,368:  -4499 100  99
1720772438,368:  -4735 100  99
1720772438,368:  -4828 100  99
1720772438,368:  -4742 100  99
1720772438,368:  -4524 100  99
1720772438,368:  -4264 100  99
1720772438,368:  -4041 100  99
1720772438,368:  -3892 100  99
1720772438,368:  -3833 100  99
1720772438,400:  -3869 100  99
1720772438,400:  -3977 100  99
1720772438,400:  -4086 100  99
1720772438,400:  -4112 100  99
1720772438,400:  -4015 100  99
1720772438,400:  -3825 100  99
1720772438,400:  -3613 100  99
1720772438,400:  -3443 100  99
1720772438,400:  -3340 100  99
1720772438,400:  -3295 100  99
1720772438,400:  -3281 100  99
1720772438,400:  -3261 100  99
1720772438,400:  -3202 100  99
1720772438,400:  -3092 100  99
1720772438,400:  -2946 100  99
1720772438,432:  -2799 100  99
1720772438,432:  -2685 100  99
1720772438,432:  -2621 100  99
1720772438,432:  -2603 100  99
1720772438,432:  -2605 100  99
1720772438,432:  -2602 100  99
1720772438,432:  -2586 100  99
1720772438,432:  -2566 100  99
1720772438,432:  -2551 100  99
1720772438,432:  -2526 100  99
1720772438,432:  -2469 100  99
1720772438,432:  -2377 100  99
1720772438,432:  -2278 100  99
1720772438,432:  -2205 100  99
1720772438,432:  -2156 100  99
1720772438,432:  -2093 100  99
1720772438,432:  -1990 100  99
1720772438,432:  -1869 100  99
1720772438,432:  -1777 100  99
1720772438,432:  -1738 100  99
1720772438,432:  -1729 100  99
1720772438,432:  -1715 100  99
1720772438,432:  -1689 100  99
1720772438,464:  -1677 100  99
1720772438,464:  -1699 100  99
1720772438,464:  -1742 100  99
1720772438,464:  -1776 100  99
1720772438,464:  -1777 100  99
1720772438,464:  -1739 100  99
1720772438,464:  -1667 100  99
1720772438,464:  -1565 100  99
1720772438,464:  -1456 100  99
1720772438,464:  -1367 100  99
1720772438,464:  -1313 100  99
1720772438,464:  -1281 100  99
1720772438,464:  -1246 100  99
1720772438,464:  -1202 100  99
1720772438,464:  -1167 100  99
1720772438,497:  -1159 100  99
1720772438,497:  -1169 100  99
1720772438,497:  -1174 100  99
1720772438,497:  -1155 100  99
1720772438,497:  -1107 100  99
1720772438,497:  -1037 100  99
1720772438,497:   -964 100  99
1720772438,528:   -918 100  99
1720772438,528:   -920 100  99
1720772438,528:   -953 100  99
1720772438,528:   -965 100  99
1720772438,528:   -924 100  99
1720772438,528:   -860 100  99
1720772438,528:   -833 100  99
1720772438,528:   -856 100  99
1720772438,528:   -862 100  99
1720772438,528:   -783 100  99
1720772438,528:   -630 100  99
1720772438,528:   -491 100  99
1720772438,528:   -440 100  99
1720772438,528:   -450 100  99
1720772438,528:   -437 100  99
1720772438,560:   -357 100  99
1720772438,560:   -262 100  99
1720772438,560:   -235 100  99
1720772438,560:   -286 100  99
1720772438,560:   -338 100  99
1720772438,560:   -308 100  99
1720772438,560:   -200 100  99
1720772438,560:    -97 100  99
1720772438,560:    -52 100  99
1720772438,560:    -19 100  99
1720772438,560:     94 100  99
1720772438,560:    304 100  99
1720772438,560:    516 100  99
1720772438,560:    612 100  99
1720772438,560:    584 100  99
1720772438,560:    538 100  99
1720772438,560:    567 100  99
1720772438,560:    647 100  99
1720772438,560:    679 100  99
1720772438,560:    616 100  99
1720772438,560:    527 100  99
1720772438,560:    512 100  99
1720772438,560:    588 100  99
1720772438,592:    683 100  99
1720772438,592:    730 100  99
1720772438,592:    738 100  99
1720772438,592:    757 100  99
1720772438,592:    794 100  99
1720772438,592:    802 100  99
1720772438,592:    750 100  99
1720772438,592:    674 100  99
1720772438,592:    640 100  99
1720772438,592:    661 100  99
1720772438,592:    682 100  99
1720772438,592:    658 100  99
1720772438,592:    608 100  99
1720772438,592:    594 100  99
1720772438,592:    635 100  99
1720772438,623:    687 100  99
1720772438,623:    698 100  99
1720772438,623:    676 100  99
1720772438,623:    670 100  99
1720772438,623:    700 100  99
1720772438,623:    725 100  99
1720772438,623:    708 100  99
1720772438,623:    676 100  99
1720772438,623:    687 100  99
1720772438,623:    746 100  99
1720772438,623:    785 100  99
1720772438,623:    746 100  99
1720772438,623:    664 100  99
1720772438,623:    628 100  99
1720772438,623:    666 100  99
1720772438,656:    706 100  99
1720772438,656:    678 100  99
1720772438,656:    608 100  99
1720772438,656:    595 100  99
1720772438,656:    677 100  99
1720772438,656:    774 100  99
1720772438,656:    787 100  99
1720772438,656:    719 100  99
1720772438,656:    666 100  99
1720772438,656:    696 100  99
1720772438,656:    761 100  99
1720772438,656:    765 100  99
1720772438,656:    680 100  99
1720772438,656:    571 100  99
1720772438,656:    514 100  99
1720772438,687:    516 100  99
1720772438,687:    531 100  99
1720772438,687:    533 100  99
1720772438,687:    529 100  99
1720772438,687:    530 100  99
1720772438,687:    526 100  99
1720772438,687:    515 100  99
1720772438,687:    519 100  99
1720772438,687:    560 100  99
1720772438,687:    616 100  99
1720772438,687:    637 100  99
1720772438,687:    606 100  99
1720772438,687:    566 100  99
1720772438,687:    569 100  99
1720772438,687:    608 100  99
1720772438,719:    624 100  99
1720772438,719:    584 100  99
1720772438,719:    528 100  99
1720772438,719:    518 100  99
1720772438,719:    554 100  99
1720772438,719:    565 100  99
1720772438,719:    501 100  99
1720772438,719:    404 100  99
1720772438,719:    367 100  99
1720772438,719:    420 100  99
1720772438,719:    491 100  99
1720772438,719:    491 100  99
1720772438,719:    424 100  99
1720772438,719:    385 100  99
1720772438,719:    441 100  99
1720772438,751:    548 100  99
1720772438,751:    602 100  99
1720772438,751:    566 100  99
1720772438,751:    506 100  99
1720772438,751:    505 100  99
1720772438,751:    553 100  99
1720772438,751:    571 100  99
1720772438,751:    522 100  99
1720772438,751:    462 100  99
1720772438,751:    461 100  99
1720772438,751:    509 100  99
1720772438,751:    532 100  99
1720772438,751:    504 100  99
1720772438,751:    486 100  99
1720772438,751:    545 100  99
1720772438,751:    646 100  99
1720772438,751:    689 100  99
1720772438,751:    628 100  99
1720772438,751:    536 100  99
1720772438,751:    509 100  99
1720772438,751:    540 100  99
1720772438,751:    541 100  99
1720772438,783:    463 100  99
1720772438,783:    365 100  99
1720772438,783:    332 100  99
1720772438,783:    362 100  99
1720772438,783:    382 100  99
1720772438,783:    361 100  99
1720772438,783:    356 100  99
1720772438,783:    422 100  99
1720772438,783:    520 100  99
1720772438,783:    561 100  99
1720772438,783:    526 100  99
1720772438,783:    492 100  99
1720772438,783:    533 100  99
1720772438,783:    615 100  99
1720772438,783:    646 100  99
1720772438,815:    599 100  99
1720772438,815:    553 100  99
1720772438,815:    587 100  99
1720772438,815:    680 100  99
1720772438,815:    739 100  99
1720772438,815:    724 100  99
1720772438,815:    691 100  99
1720772438,815:    711 100  99
1720772438,815:    775 100  99
1720772438,815:    802 100  99
1720772438,815:    749 100  99
1720772438,815:    659 100  99
1720772438,815:    614 100  99
1720772438,815:    630 100  99
1720772438,815:    646 100  99
1720772438,847:    604 100  99
1720772438,847:    520 100  99
1720772438,847:    471 100  99
1720772438,847:    494 100  99
1720772438,847:    547 100  99
1720772438,847:    555 100  99
1720772438,847:    503 100  99
1720772438,847:    444 100  99
1720772438,847:    430 100  99
1720772438,847:    448 100  99
1720772438,847:    446 100  99
1720772438,847:    404 100  99
1720772438,847:    363 100  99
1720772438,847:    368 100  99
1720772438,847:    404 100  99
1720772438,879:    419 100  99
1720772438,879:    399 100  99
1720772438,879:    393 100  99
1720772438,879:    453 100  99
1720772438,879:    553 100  99
1720772438,879:    613 100  99
1720772438,879:    585 100  99
1720772438,879:    504 100  99
1720772438,879:    439 100  99
1720772438,879:    412 100  99
1720772438,879:    393 100  99
1720772438,879:    368 100  99
1720772438,879:    370 100  99
1720772438,879:    432 100  99
1720772438,879:    526 100  99
1720772438,911:    594 100  99
1720772438,911:    626 100  99
1720772438,911:    669 100  99
1720772438,911:    729 100  99
1720772438,911:    707 100  99
1720772438,911:    465 100  99
1720772438,911:    -39 100  99
1720772438,911:   -696 100  99
1720772438,911:  -1330 100  99
1720772438,911:  -1816 100  99
1720772438,911:  -2096 100  99
1720772438,911:  -2111 100  99
1720772438,911:  -1762 100  99
1720772438,911:   -944 100  99
1720772438,911:    400 100  99
1720772438,911:   2289 100  99
1720772438,911:   4700 100  99
1720772438,911:   7503 100  99
1720772438,911:  10436 100  99
1720772438,911:  13206 100  99
1720772438,911:  15662 100  99
1720772438,911:  17834 100  99
1720772438,911:  19745 100  99
1720772438,943:  21234  99 101
1720772438,943:  22025  99 101
1720772438,943:  21969  99 101
1720772438,943:  21149  99 101
1720772438,943:  19695  99 101
1720772438,943:  17581  99 101
1720772438,943:  14724  99 101
1720772438,943:  11285  99 101
1720772438,943:   7767  99 101
1720772438,943:   4702  99 101
1720772438,943:   2259  99 101
1720772438,943:    234  99 101
1720772438,943:  -1567  99 101
1720772438,943:  -3015  99 101
1720772438,943:  -3792  99 101
1720772438,974:  -3793  99 101
1720772438,975:  -3316  99 101
1720772438,975:  -2848  99 101
1720772438,975:  -2699  99 101
1720772438,975:  -2865  99 101
1720772438,975:  -3172  99 101
1720772438,975:  -3483  99 101
1720772438,975:  -3773  99 101
1720772438,975:  -4065  99 101
1720772438,975:  -4349  99 101
1720772438,975:  -4587  99 101
1720772438,975:  -4733  99 101
1720772438,975:  -4754  99 101
1720772438,975:  -4635  99 101
1720772438,975:  -4401  99 101
1720772439,005:  -4117  99 101
1720772439,005:  -3872  99 101
1720772439,005:  -3750  99 101
1720772439,005:  -3784  99 101
1720772439,005:  -3929  99 101
1720772439,005:  -4073  99 101
1720772439,005:  -4113  99 101
1720772439,005:  -4019  99 101
1720772439,005:  -3839  99 101
1720772439,005:  -3633  99 101
1720772439,005:  -3423  99 101
1720772439,005:  -3220  99 101
1720772439,005:  -3066  99 101
1720772439,005:  -3023  99 101
1720772439,005:  -3095  99 101
1720772439,037:  -3192  99 101
1720772439,037:  -3199  99 101
1720772439,037:  -3090  99 101
1720772439,037:  -2939  99 101
1720772439,037:  -2825  99 101
1720772439,037:  -2745  99 101
1720772439,037:  -2643  99 101
1720772439,037:  -2510  99 101
1720772439,037:  -2411  99 101
1720772439,037:  -2390  99 101
1720772439,037:  -2402  99 101
1720772439,037:  -2359  99 101
1720772439,037:  -2246  99 101
1720772439,037:  -2144  99 101
1720772439,037:  -2124  99 101
1720772439,068:  -2158  99 101
1720772439,068:  -2151  99 101
1720772439,068:  -2069  99 101
1720772439,068:  -1974  99 101
1720772439,068:  -1941  99 101
1720772439,068:  -1963  99 101
1720772439,068:  -1963  99 101
1720772439,068:  -1897  99 101
1720772439,068:  -1800  99 101
1720772439,068:  -1739  99 101
1720772439,068:  -1728  99 101
1720772439,068:  -1724  99 101
1720772439,068:  -1694  99 101
1720772439,068:  -1649  99 101
1720772439,068:  -1618  99 101
1720772439,099:  -1592  99 101
1720772439,099:  -1539  99 101
1720772439,099:  -1458  99 101
1720772439,099:  -1398  99 101
1720772439,099:  -1399  99 101
1720772439,099:  -1434  99 101
1720772439,099:  -1426  99 101
1720772439,099:  -1341  99 101
1720772439,099:  -1239  99 101
1720772439,099:  -1211  99 101
1720772439,099:  -1275  99 101
1720772439,099:  -1338  99 101
1720772439,099:  -1301  99 101
1720772439,099:  -1171  99 101
1720772439,099:  -1061  99 101
1720772439,131:  -1057  99 101
1720772439,131:  -1119  99 101
1720772439,131:  -1130  99 101
1720772439,131:  -1039  99 101
1720772439,131:   -918  99 101
1720772439,131:   -868  99 101
1720772439,131:   -896  99 101
1720772439,131:   -912  99 101
1720772439,131:   -858  99 101
1720772439,131:   -778  99 101
1720772439,131:   -753  99 101
1720772439,131:   -780  99 101
1720772439,131:   -774  99 101
1720772439,131:   -688  99 101
1720772439,131:   -583  99 101
1720772439,131:   -550  99 101
1720772439,131:   -588  99 101
1720772439,131:   -599  99 101
1720772439,131:   -523  99 101
1720772439,131:   -414  99 101
1720772439,131:   -371  99 101
1720772439,131:   -405  99 101
1720772439,163:   -419  99 101
1720772439,163:   -340  99 101
1720772439,163:   -210  99 101
1720772439,163:   -127  99 101
1720772439,163:   -112  99 101
1720772439,163:    -92  99 101
1720772439,163:      3  99 101
1720772439,163:    141  99 101
1720772439,163:    238  99 101
1720772439,163:    267  99 101
1720772439,163:    282  99 101
1720772439,163:    337  99 101
1720772439,163:    409  99 101
1720772439,195:    444  99 101
1720772439,195:    441  99 101
1720772439,195:    447  99 101
1720772439,195:    489  99 101
1720772439,195:    531  99 101
1720772439,195:    530  99 101
1720772439,195:    506  99 101
1720772439,195:    513  99 101
1720772439,195:    569  99 101
1720772439,195:    625  99 101
1720772439,195:    632  99 101
1720772439,195:    600  99 101
1720772439,195:    586  99 101
1720772439,195:    617  99 101
1720772439,195:    671  99 101
1720772439,226:    715  99 101
1720772439,226:    739  99 101
1720772439,226:    744  99 101
1720772439,226:    720  99 101
1720772439,226:    656  99 101
1720772439,226:    577  99 101
1720772439,226:    529  99 101
1720772439,226:    534  99 101
1720772439,226:    554  99 101
1720772439,226:    530  99 101
1720772439,226:    452  99 101
1720772439,226:    377  99 101
1720772439,226:    371  99 101
1720772439,226:    440  99 101
1720772439,226:    522  99 101
1720772439,258:    541  99 101
1720772439,258:    487  99 101
1720772439,258:    421  99 101
1720772439,258:    411  99 101
1720772439,258:    456  99 101
1720772439,258:    494  99 101
1720772439,258:    476  99 101
1720772439,258:    427  99 101
1720772439,258:    418  99 101
1720772439,258:    473  99 101
1720772439,258:    536  99 101
1720772439,258:    545  99 101
1720772439,258:    507  99 101
1720772439,258:    486  99 101
1720772439,258:    510  99 101
1720772439,295:    537  99 101
1720772439,295:    518  99 101
1720772439,295:    468  99 101
1720772439,295:    449  99 101
1720772439,295:    479  99 101
1720772439,295:    508  99 101
1720772439,295:    488  99 101
1720772439,295:    443  99 101
1720772439,295:    438  99 101
1720772439,295:    485  99 101
1720772439,295:    517  99 101
1720772439,295:    472  99 101
1720772439,295:    381  99 101
1720772439,295:    340  99 101
1720772439,295:    394  99 101
1720772439,295:    488  99 101
1720772439,295:    539  99 101
1720772439,295:    529  99 101
1720772439,295:    519  99 101
1720772439,295:    551  99 101
1720772439,295:    581  99 101
1720772439,295:    541  99 101
1720772439,322:    433  99 101
1720772439,322:    335  99 101
1720772439,322:    306  99 101
1720772439,322:    310  99 101
1720772439,322:    275  99 101
1720772439,322:    201  99 101
1720772439,322:    171  99 101
1720772439,322:    244  99 101
1720772439,322:    362  99 101
1720772439,322:    417  99 101
1720772439,322:    388  99 101
1720772439,322:    372  99 101
1720772439,322:    460  99 101
1720772439,322:    601  99 101
1720772439,322:    651  99 101
1720772439,354:    542  99 101
1720772439,354:    375  99 101
1720772439,354:    303  99 101
1720772439,354:    358  99 101
1720772439,354:    423  99 101
1720772439,354:    378  99 101
1720772439,354:    237  99 101
1720772439,354:    113  99 101
1720772439,354:     89  99 101
1720772439,354:    140  99 101
1720772439,354:    192  99 101
1720772439,354:    209  99 101
1720772439,354:    208  99 101
1720772439,354:    211  99 101
1720772439,354:    211  99 101
1720772439,386:    203  99 101
1720772439,386:    204  99 101
1720772439,386:    235  99 101
1720772439,386:    280  99 101
1720772439,386:    300  99 101
1720772439,386:    283  99 101
1720772439,386:    263  99 101
1720772439,386:    279  99 101
1720772439,386:    316  99 101
1720772439,386:    324  99 101
1720772439,386:    278  99 101
1720772439,386:    219  99 101
1720772439,386:    202  99 101
1720772439,386:    224  99 101
1720772439,386:    225  99 101
1720772439,386:    165  99 101
1720772439,386:     79  99 101
1720772439,386:     46  99 101
1720772439,386:     96  99 101
1720772439,386:    183  99 101
1720772439,386:    243  99 101
1720772439,386:    267  99 101
1720772439,386:    295  99 101
1720772439,418:    340  99 101
1720772439,418:    365  99 101
1720772439,418:    338  99 101
1720772439,418:    287  99 101
1720772439,418:    277  99 101
1720772439,418:    320  99 101
1720772439,418:    345  99 101
1720772439,418:    291  99 101
1720772439,418:    182  99 101
1720772439,418:    117  99 101
1720772439,418:    146  99 101
1720772439,418:    213  99 101
1720772439,418:    219  99 101
1720772439,418:    144  99 101
1720772439,418:     65  99 101
1720772439,450:     63  99 101
1720772439,450:    128  99 101
1720772439,450:    185  99 101
1720772439,450:    191  99 101
1720772439,450:    183  99 101
1720772439,450:    216  99 101
1720772439,450:    281  99 101
1720772439,482:    317  99 101
1720772439,482:    291  99 101
1720772439,482:    248  99 101
1720772439,482:    256  99 101
1720772439,482:    318  99 101
1720772439,482:    365  99 101
1720772439,482:    337  99 101
1720772439,482:    260  99 101
1720772439,482:    217  99 101
1720772439,482:    256  99 101
1720772439,482:    332  99 101
1720772439,482:    365  99 101
1720772439,482:    330  99 101
1720772439,482:    278  99 101
1720772439,482:    263  99 101
1720772439,514:    287  99 101
1720772439,514:    310  99 101
1720772439,514:    314  99 101
1720772439,514:    319  99 101
1720772439,514:    348  99 101
1720772439,514:    380  99 101
1720772439,514:    381  99 101
1720772439,514:    345  99 101
1720772439,514:    305  99 101
1720772439,514:    279  99 101
1720772439,514:    245  99 101
1720772439,514:    173  99 101
1720772439,514:     81  99 101
1720772439,514:     26  99 101
1720772439,514:     33  99 101
1720772439,514:     66  99 101
1720772439,514:     78  99 101
1720772439,514:     80  99 101
1720772439,514:    137  99 101
1720772439,514:    266  99 101
1720772439,514:    385  99 101
1720772439,514:    392  99 101
1720772439,514:    292  99 101
1720772439,545:    198  99 101
1720772439,545:    204  99 101
1720772439,545:    273  99 101
1720772439,545:    294  99 101
1720772439,545:    226  99 101
1720772439,545:    146  99 101
1720772439,545:    141  99 101
1720772439,545:    196  99 101
1720772439,545:    228  99 101
1720772439,545:    212  99 101
1720772439,545:    213  99 101
1720772439,545:    278  99 101
1720772439,545:    352  99 101
1720772439,545:    339  99 101
1720772439,545:    233  99 101
1720772439,577:    140  99 101
1720772439,577:    144  99 101
1720772439,577:    205  99 101
1720772439,577:    213  99 101
1720772439,577:    130  99 101
1720772439,577:     40  99 101
1720772439,577:     37  99 101
1720772439,577:    115  99 101
1720772439,577:    189  99 101
1720772439,577:    216  99 101
1720772439,577:    237  99 101
1720772439,577:    302  99 101
1720772439,577:    381  99 101
1720772439,578:    401  99 101
1720772439,578:    347  99 101
1720772439,609:    298  99 101
1720772439,609:    325  99 101
1720772439,609:    393  99 101
1720772439,609:    395  99 101
1720772439,609:    284  99 101
1720772439,609:    140  99 101
1720772439,609:     79  99 101
1720772439,609:    116  99 101
1720772439,609:    161  99 101
1720772439,609:    134  99 101
1720772439,609:     63  99 101
1720772439,609:     32  99 101
1720772439,609:     69  99 101
1720772439,609:    118  99 101
1720772439,609:    125  99 101
1720772439,641:    111  99 101
1720772439,641:    129  99 101
1720772439,641:    175  99 101
1720772439,641:    192  99 101
1720772439,641:    145  99 101
1720772439,641:     76  99 101
1720772439,641:     58  99 101
1720772439,641:     96  99 101
1720772439,641:    135  99 101
1720772439,641:    135  99 101
1720772439,641:    109  99 101
1720772439,641:     96  99 101
1720772439,641:    107  99 101
1720772439,641:    128  99 101
1720772439,641:    160  99 101
1720772439,672:    224  99 101
1720772439,672:    326  99 101
1720772439,672:    428  99 101
1720772439,672:    478  99 101
1720772439,672:    448  99 101
1720772439,672:    334  99 101
1720772439,672:    136  99 101
1720772439,672:   -169  99 101
1720772439,672:   -612  99 101
1720772439,672:  -1187  99 101
1720772439,672:  -1807  99 101
1720772439,672:  -2307  99 101
1720772439,672:  -2504  99 101
1720772439,672:  -2284  99 101
1720772439,672:  -1639  99 101
1720772439,704:   -594  99 101
1720772439,704:    893  99 101
1720772439,704:   2922  99 101
1720772439,704:   5483  99 101
1720772439,704:   8337  99 101
1720772439,704:  11110  99 101
1720772439,704:  13561  99 101
1720772439,704:  15711  99 101
1720772439,704:  17666  99 101
1720772439,704:  19357  99 101
1720772439,704:  20514  99 101
1720772439,704:  20922  99 101
1720772439,704:  20602  99 101
1720772439,704:  19683  99 101
1720772439,704:  18160  99 101
1720772439,704:  15896  99 101
1720772439,704:  12916  99 101
1720772439,704:   9606  99 101
1720772439,704:   6501  99 101
1720772439,704:   3876  99 101
1720772439,704:   1629  99 101
1720772439,704:   -425  99 101
1720772439,736:  -2211  79  96
1720772439,736:  -3421  79  96
1720772439,736:  -3857  79  96
1720772439,736:  -3670  79  96
1720772439,736:  -3244  79  96
1720772439,736:  -2912  79  96
1720772439,736:  -2807  79  96
1720772439,736:  -2914  79  96
1720772439,736:  -3174  79  96
1720772439,736:  -3515  79  96
1720772439,736:  -3863  79  96
1720772439,736:  -4173  79  96
1720772439,736:  -4451  79  96
1720772439,736:  -4705  79  96
1720772439,736:  -4890  79  96
1720772439,768:  -4911  79  96
1720772439,768:  -4737  79  96
1720772439,768:  -4446  79  96
1720772439,768:  -4161  79  96
1720772439,768:  -3957  79  96
1720772439,768:  -3844  79  96
1720772439,768:  -3824  79  96
1720772439,768:  -3904  79  96
1720772439,768:  -4044  79  96
1720772439,768:  -4138  79  96
1720772439,768:  -4082  79  96
1720772439,768:  -3868  79  96
1720772439,768:  -3601  79  96
1720772439,768:  -3397  79  96
1720772439,768:  -3291  79  96
1720772439,800:  -3242  79  96
1720772439,800:  -3209  79  96
1720772439,800:  -3198  79  96
1720772439,800:  -3218  79  96
1720772439,800:  -3224  79  96
1720772439,800:  -3145  79  96
1720772439,800:  -2965  79  96
1720772439,800:  -2764  79  96
1720772439,800:  -2653  79  96
1720772439,800:  -2661  79  96
1720772439,800:  -2714  79  96
1720772439,800:  -2716  79  96
1720772439,800:  -2647  79  96
1720772439,800:  -2562  79  96
1720772439,800:  -2514  79  96
1720772439,831:  -2497  79  96
1720772439,831:  -2469  79  96
1720772439,831:  -2414  79  96
1720772439,831:  -2348  79  96
1720772439,831:  -2294  79  96
1720772439,831:  -2253  79  96
1720772439,831:  -2219  79  96
1720772439,831:  -2193  79  96
1720772439,831:  -2171  79  96
1720772439,831:  -2134  79  96
1720772439,831:  -2070  79  96
1720772439,831:  -1998  79  96
1720772439,831:  -1952  79  96
1720772439,831:  -1934  79  96
1720772439,831:  -1898  79  96
1720772439,862:  -1808  79  96
1720772439,862:  -1703  79  96
1720772439,862:  -1665  79  96
1720772439,862:  -1724  79  96
1720772439,862:  -1809  79  96
1720772439,862:  -1818  79  96
1720772439,862:  -1733  79  96
1720772439,862:  -1638  79  96
1720772439,862:  -1620  79  96
1720772439,862:  -1675  79  96
1720772439,862:  -1710  79  96
1720772439,862:  -1655  79  96
1720772439,862:  -1532  79  96
1720772439,862:  -1420  79  96
1720772439,862:  -1362  79  96
1720772439,862:  -1336  79  96
1720772439,862:  -1299  79  96
1720772439,862:  -1250  79  96
1720772439,862:  -1222  79  96
1720772439,862:  -1223  79  96
1720772439,862:  -1215  79  96
1720772439,862:  -1157  79  96
1720772439,862:  -1070  79  96
1720772439,894:  -1015  79  96
1720772439,894:  -1022  79  96
1720772439,894:  -1038  79  96
1720772439,894:   -985  79  96
1720772439,894:   -862  79  96
1720772439,894:   -750  79  96
1720772439,894:   -715  79  96
1720772439,894:   -734  79  96
1720772439,894:   -719  79  96
1720772439,894:   -635  79  96
1720772439,894:   -544  79  96
1720772439,894:   -528  79  96
1720772439,894:   -594  79  96
1720772439,894:   -656  79  96
1720772439,894:   -639  79  96
1720772439,926:   -556  79  96
1720772439,926:   -485  79  96
1720772439,926:   -472  79  96
1720772439,926:   -479  79  96
1720772439,926:   -442  79  96
1720772439,926:   -345  79  96
1720772439,926:   -240  79  96
1720772439,926:   -173  79  96
1720772439,926:   -135  79  96
1720772439,926:    -86  79  96
1720772439,926:    -18  79  96
1720772439,926:     30  79  96
1720772439,926:     32  79  96
1720772439,926:     17  79  96
1720772439,926:     45  79  96
1720772439,958:    113  79  96
1720772439,958:    159  79  96
1720772439,958:    143  79  96
1720772439,958:    115  79  96
1720772439,958:    158  79  96
1720772439,958:    280  79  96
1720772439,958:    392  79  96
1720772439,958:    414  79  96
1720772439,958:    373  79  96
1720772439,958:    356  79  96
1720772439,958:    391  79  96
1720772439,958:    419  79  96
1720772439,958:    384  79  96
1720772439,958:    317  79  96
1720772439,958:    292  79  96
1720772439,989:    321  79  96
1720772439,989:    350  79  96
1720772439,989:    342  79  96
1720772439,989:    326  79  96
1720772439,989:    350  79  96
1720772439,989:    397  79  96
1720772439,989:    409  79  96
1720772440,021:    371  79  96
1720772440,021:    334  79  96
1720772440,021:    341  79  96
1720772440,021:    363  79  96
1720772440,021:    342  79  96
1720772440,021:    280  79  96
1720772440,021:    240  79  96
1720772440,021:    265  79  96
1720772440,021:    314  79  96
1720772440,021:    313  79  96
1720772440,021:    258  79  96
1720772440,021:    221  79  96
1720772440,021:    260  79  96
1720772440,021:    344  79  96
1720772440,021:    385  79  96
1720772440,021:    349  79  96
1720772440,021:    292  79  96
1720772440,021:    285  79  96
1720772440,021:    323  79  96
1720772440,021:    337  79  96
1720772440,021:    284  79  96
1720772440,021:    205  79  96
1720772440,021:    175  79  96
1720772440,053:    214  79  96
1720772440,053:    261  79  96
1720772440,053:    261  79  96
1720772440,053:    234  79  96
1720772440,053:    250  79  96
1720772440,053:    334  79  96
1720772440,053:    423  79  96
1720772440,053:    439  79  96
1720772440,053:    375  79  96
1720772440,053:    300  79  96
1720772440,053:    269  79  96
1720772440,053:    266  79  96
1720772440,053:    241  79  96
1720772440,053:    182  79  96
1720772440,053:    131  79  96
1720772440,085:    126  79  96
1720772440,085:    157  79  96
1720772440,085:    190  79  96
1720772440,085:    220  79  96
1720772440,085:    265  79  96
1720772440,085:    326  79  96
1720772440,085:    363  79  96
1720772440,085:    346  79  96
1720772440,085:    300  79  96
1720772440,085:    286  79  96
1720772440,085:    323  79  96
1720772440,085:    356  79  96
1720772440,085:    319  79  96
1720772440,085:    221  79  96
1720772440,085:    149  79  96
1720772440,085:    166  79  96
1720772440,085:    235  79  96
1720772440,085:    263  79  96
1720772440,085:    216  79  96
1720772440,085:    160  79  96
1720772440,085:    179  79  96
1720772440,085:    270  79  96
1720772440,116:    348  79  96
1720772440,116:    347  79  96
1720772440,116:    290  79  96
1720772440,116:    248  79  96
1720772440,116:    242  79  96
1720772440,116:    226  79  96
1720772440,116:    159  79  96
1720772440,116:     61  79  96
1720772440,148:     -8  79  96
1720772440,148:    -34  79  96
1720772440,148:    -57  79  96
1720772440,148:    -98  79  96
1720772440,148:   -119  79  96
1720772440,148:    -66  79  96
1720772440,148:     47  79  96
1720772440,148:    137  79  96
1720772440,148:    140  79  96
1720772440,148:     90  79  96
1720772440,148:     72  79  96
1720772440,148:    118  79  96
1720772440,148:    165  79  96
1720772440,148:    139  79  96
1720772440,148:     55  79  96
1720772440,148:      2  79  96
1720772440,148:     35  79  96
1720772440,148:    103  79  96
1720772440,148:    119  79  96
1720772440,179:     73  79  96
1720772440,179:     54  79  96
1720772440,179:    136  79  96
1720772440,179:    276  79  96
1720772440,179:    349  79  96
1720772440,179:    285  79  96
1720772440,179:    150  79  96
1720772440,179:     70  79  96
1720772440,179:     94  79  96
1720772440,179:    154  79  96
1720772440,179:    153  79  96
1720772440,179:     71  79  96
1720772440,179:    -35  79  96
1720772440,179:   -100  79  96
1720772440,179:   -104  79  96
1720772440,210:    -66  79  96
1720772440,210:    -13  79  96
1720772440,210:     32  79  96
1720772440,210:     52  79  96
1720772440,210:     44  79  96
1720772440,210:     37  79  96
1720772440,210:     67  79  96
1720772440,210:    131  79  96
1720772440,210:    183  79  96
1720772440,210:    182  79  96
1720772440,210:    141  79  96
1720772440,210:    116  79  96
1720772440,210:    132  79  96
1720772440,210:    150  79  96
1720772440,210:    122  79  96
1720772440,210:     58  79  96
1720772440,210:     22  79  96
1720772440,210:     53  79  96
1720772440,210:    112  79  96
1720772440,210:    124  79  96
1720772440,210:     73  79  96
1720772440,210:     18  79  96
1720772440,210:     35  79  96
1720772440,242:    122  79  96
1720772440,242:    207  79  96
1720772440,242:    219  79  96
1720772440,242:    169  79  96
1720772440,242:    122  79  96
1720772440,242:    129  79  96
1720772440,242:    174  79  96
1720772440,242:    206  79  96
1720772440,242:    205  79  96
1720772440,242:    194  79  96
1720772440,242:    207  79  96
1720772440,242:    237  79  96
1720772440,242:    253  79  96
1720772440,242:    243  79  96
1720772440,242:    226  79  96
1720772440,274:    213  79  96
1720772440,274:    184  79  96
1720772440,274:    115  79  96
1720772440,274:     36  79  96
1720772440,274:     15  79  96
1720772440,274:     74  79  96
1720772440,274:    152  79  96
1720772440,274:    176  79  96
1720772440,274:    149  79  96
1720772440,274:    144  79  96
1720772440,274:    200  79  96
1720772440,274:    260  79  96
1720772440,274:    244  79  96
1720772440,274:    163  79  96
1720772440,274:    114  79  96
1720772440,305:    155  79  96
1720772440,305:    221  79  96
1720772440,305:    214  79  96
1720772440,305:    128  79  96
1720772440,305:     73  79  96
1720772440,305:    133  79  96
1720772440,305:    254  79  96
1720772440,305:    303  79  96
1720772440,305:    223  79  96
1720772440,305:    105  79  96
1720772440,305:     80  79  96
1720772440,305:    174  79  96
1720772440,305:    289  79  96
1720772440,305:    316  79  96
1720772440,305:    258  79  96
1720772440,337:    207  79  96
1720772440,337:    235  79  96
1720772440,337:    318  79  96
1720772440,337:    379  79  96
1720772440,337:    375  79  96
1720772440,337:    329  79  96
1720772440,337:    282  79  96
1720772440,337:    246  79  96
1720772440,337:    211  79  96
1720772440,337:    176  79  96
1720772440,337:    155  79  96
1720772440,337:    150  79  96
1720772440,337:    146  79  96
1720772440,337:    133  79  96
1720772440,337:    125  79  96
1720772440,369:    138  79  96
1720772440,369:    154  79  96
1720772440,369:    142  79  96
1720772440,369:    101  79  96
1720772440,369:     70  79  96
1720772440,369:     82  79  96
1720772440,369:    117  79  96
1720772440,369:    131  79  96
1720772440,369:    111  79  96
1720772440,369:     95  79  96
1720772440,369:    119  79  96
1720772440,369:    174  79  96
1720772440,369:    217  79  96
1720772440,369:    227  79  96
1720772440,369:    216  79  96
1720772440,369:    208  79  96
1720772440,369:    208  79  96
1720772440,369:    207  79  96
1720772440,369:    206  79  96
1720772440,369:    209  79  96
1720772440,369:    217  79  96
1720772440,369:    218  79  96
1720772440,401:    208  79  96
1720772440,401:    200  79  96
1720772440,401:    211  79  96
1720772440,401:    242  79  96
1720772440,401:    271  79  96
1720772440,401:    270  79  96
1720772440,401:    240  79  96
1720772440,401:    210  79  96
1720772440,433:    208  79  96
1720772440,433:    221  79  96
1720772440,433:    210  79  96
1720772440,433:    164  79  96
1720772440,433:    127  79  96
1720772440,433:    159  79  96
1720772440,433:    252  79  96
1720772440,433:    326  79  96
1720772440,433:    312  79  96
1720772440,433:    238  79  96
1720772440,433:    203  79  96
1720772440,433:    261  79  96
1720772440,433:    350  79  96
1720772440,433:    376  79  96
1720772440,433:    327  79  96
1720772440,433:    281  79  96
1720772440,433:    302  79  96
1720772440,433:    354  79  96
1720772440,433:    358  79  96
1720772440,433:    296  79  96
1720772440,433:    236  79  96
1720772440,433:    236  79  96
1720772440,465:    271  79  96
1720772440,465:    282  79  96
1720772440,465:    256  79  96
1720772440,465:    244  79  96
1720772440,465:    279  79  96
1720772440,465:    324  79  96
1720772440,465:    318  79  96
1720772440,465:    257  79  96
1720772440,465:    206  79  96
1720772440,465:    208  79  96
1720772440,465:    232  79  96
1720772440,465:    212  79  96
1720772440,465:    136  79  96
1720772440,465:     71  79  96
1720772440,465:     84  79  96
1720772440,496:    153  79  96
1720772440,496:    192  79  96
1720772440,496:    147  79  96
1720772440,496:     65  79  96
1720772440,496:     36  79  96
1720772440,496:     85  79  96
1720772440,496:    149  79  96
1720772440,496:    151  79  96
1720772440,496:     97  79  96
1720772440,496:     69  79  96
1720772440,496:    132  79  96
1720772440,496:    255  79  96
1720772440,496:    339  79  96
1720772440,496:    292  79  96
1720772440,496:    107  79  96
1720772440,528:   -181  79  96
1720772440,528:   -549  79  96
1720772440,528:  -1009  79  96
1720772440,528:  -1538  79  96
1720772440,528:  -2025  79  96
1720772440,528:  -2303  79  96
1720772440,528:  -2244  79  96
1720772440,528:  -1803  79  96
1720772440,528:   -970  79  96
1720772440,528:    309  79  96
1720772440,528:   2124  79  96
1720772440,528:   4466  79  96
1720772440,528:   7140  79  96
1720772440,528:   9837  79  96
1720772440,528:  12336  79  96
1720772440,560:  14606  71  87
1720772440,560:  16695  71  87
1720772440,560:  18534  71  87
1720772440,560:  19901  71  87
1720772440,560:  20589  71  87
1720772440,560:  20565  71  87
1720772440,560:  19909  71  87
1720772440,560:  18630  71  87
1720772440,560:  16623  71  87
1720772440,560:  13875  71  87
1720772440,560:  10666  71  87
1720772440,560:   7481  71  87
1720772440,560:   4687  71  87
1720772440,560:   2322  71  87
1720772440,560:    238  71  87
1720772440,592:  -1592  71  87
1720772440,592:  -2963  71  87
1720772440,592:  -3642  71  87
1720772440,592:  -3640  71  87
1720772440,592:  -3257  71  87
1720772440,592:  -2873  71  87
1720772440,592:  -2722  71  87
1720772440,592:  -2825  71  87
1720772440,592:  -3088  71  87
1720772440,592:  -3405  71  87
1720772440,592:  -3702  71  87
1720772440,592:  -3956  71  87
1720772440,592:  -4180  71  87
1720772440,592:  -4397  71  87
1720772440,592:  -4590  71  87
1720772440,592:  -4686  71  87
1720772440,592:  -4612  71  87
1720772440,592:  -4380  71  87
1720772440,592:  -4096  71  87
1720772440,592:  -3894  71  87
1720772440,592:  -3836  71  87
1720772440,592:  -3897  71  87
1720772440,592:  -3999  71  87
1720772440,623:  -4068  71  87
1720772440,623:  -4066  71  87
1720772440,623:  -3985  71  87
1720772440,623:  -3841  71  87
1720772440,623:  -3656  71  87
1720772440,623:  -3459  71  87
1720772440,623:  -3282  71  87
1720772440,655:  -3159  71  87
1720772440,655:  -3116  71  87
1720772440,655:  -3147  71  87
1720772440,655:  -3199  71  87
1720772440,655:  -3191  71  87
1720772440,655:  -3081  71  87
1720772440,655:  -2909  71  87
1720772440,655:  -2758  71  87
1720772440,655:  -2673  71  87
1720772440,655:  -2619  71  87
1720772440,655:  -2533  71  87
1720772440,655:  -2417  71  87
1720772440,655:  -2335  71  87
1720772440,655:  -2334  71  87
1720772440,655:  -2372  71  87
1720772440,687:  -2362  71  87
1720772440,687:  -2269  71  87
1720772440,687:  -2157  71  87
1720772440,687:  -2108  71  87
1720772440,687:  -2130  71  87
1720772440,687:  -2153  71  87
1720772440,687:  -2116  71  87
1720772440,687:  -2034  71  87
1720772440,687:  -1968  71  87
1720772440,687:  -1941  71  87
1720772440,687:  -1909  71  87
1720772440,687:  -1820  71  87
1720772440,687:  -1685  71  87
1720772440,687:  -1570  71  87
1720772440,687:  -1522  71  87
1720772440,687:  -1520  71  87
1720772440,687:  -1510  71  87
1720772440,687:  -1470  71  87
1720772440,687:  -1435  71  87
1720772440,687:  -1439  71  87
1720772440,687:  -1460  71  87
1720772440,687:  -1451  71  87
1720772440,687:  -1401  71  87
1720772440,733:  -1353  71  87
1720772440,733:  -1344  71  87
1720772440,733:  -1352  71  87
1720772440,733:  -1326  71  87
1720772440,733:  -1260  71  87
1720772440,733:  -1212  71  87
1720772440,733:  -1225  71  87
1720772440,733:  -1264  71  87
1720772440,733:  -1247  71  87
1720772440,733:  -1148  71  87
1720772440,733:  -1029  71  87
1720772440,733:   -968  71  87
1720772440,733:   -970  71  87
1720772440,733:   -973  71  87
1720772440,733:   -933  71  87
1720772440,733:   -871  71  87
1720772440,733:   -833  71  87
1720772440,733:   -826  71  87
1720772440,733:   -814  71  87
1720772440,733:   -778  71  87
1720772440,733:   -738  71  87
1720772440,733:   -721  71  87
1720772440,765:   -710  71  87
1720772440,765:   -662  71  87
1720772440,765:   -565  71  87
1720772440,765:   -470  71  87
1720772440,765:   -428  71  87
1720772440,765:   -424  71  87
1720772440,765:   -392  71  87
1720772440,765:   -295  71  87
1720772440,765:   -181  71  87
1720772440,765:   -133  71  87
1720772440,765:   -168  71  87
1720772440,765:   -215  71  87
1720772440,765:   -198  71  87
1720772440,765:   -120  71  87
1720772440,765:    -52  71  87
1720772440,796:    -40  71  87
1720772440,796:    -49  71  87
1720772440,796:    -17  71  87
1720772440,796:     64  71  87
1720772440,796:    145  71  87
1720772440,796:    191  71  87
1720772440,796:    225  71  87
1720772440,796:    282  71  87
1720772440,796:    355  71  87
1720772440,796:    403  71  87
1720772440,796:    415  71  87
1720772440,796:    423  71  87
1720772440,796:    450  71  87
1720772440,796:    470  71  87
1720772440,796:    447  71  87
1720772440,828:    396  71  87
1720772440,828:    385  71  87
1720772440,828:    437  71  87
1720772440,828:    488  71  87
1720772440,828:    458  71  87
1720772440,828:    357  71  87
1720772440,828:    281  71  87
1720772440,828:    293  71  87
1720772440,828:    346  71  87
1720772440,828:    341  71  87
1720772440,828:    259  71  87
1720772440,828:    191  71  87
1720772440,828:    223  71  87
1720772440,828:    325  71  87
1720772440,828:    387  71  87
1720772440,858:    353  71  87
1720772440,858:    283  71  87
1720772440,858:    267  71  87
1720772440,858:    316  71  87
1720772440,858:    353  71  87
1720772440,858:    319  71  87
1720772440,858:    245  71  87
1720772440,858:    209  71  87
1720772440,858:    245  71  87
1720772440,858:    314  71  87
1720772440,858:    362  71  87
1720772440,858:    381  71  87
1720772440,858:    399  71  87
1720772440,858:    432  71  87
1720772440,858:    455  71  87
1720772440,858:    441  71  87
1720772440,858:    400  71  87
1720772440,858:    375  71  87
1720772440,858:    392  71  87
1720772440,858:    429  71  87
1720772440,858:    441  71  87
1720772440,858:    414  71  87
1720772440,858:    380  71  87
1720772440,890:    371  71  87
1720772440,890:    380  71  87
1720772440,890:    379  71  87
1720772440,890:    350  71  87
1720772440,890:    316  71  87
1720772440,890:    291  71  87
1720772440,890:    265  71  87
1720772440,890:    217  71  87
1720772440,890:    163  71  87
1720772440,890:    147  71  87
1720772440,890:    189  71  87
1720772440,890:    251  71  87
1720772440,890:    280  71  87
1720772440,890:    271  71  87
1720772440,890:    272  71  87
1720772440,922:    316  71  87
1720772440,922:    383  71  87
1720772440,922:    428  71  87
1720772440,922:    434  71  87
1720772440,922:    421  71  87
1720772440,922:    407  71  87
1720772440,922:    381  71  87
1720772440,953:    331  71  87
1720772440,953:    270  71  87
1720772440,953:    233  71  87
1720772440,953:    238  71  87
1720772440,953:    271  71  87
1720772440,953:    304  71  87
1720772440,953:    322  71  87
1720772440,953:    337  71  87
1720772440,953:    366  71  87
1720772440,953:    415  71  87
1720772440,953:    474  71  87
1720772440,953:    519  71  87
1720772440,953:    532  71  87
1720772440,953:    504  71  87
1720772440,953:    442  71  87
1720772440,953:    371  71  87
1720772440,953:    319  71  87
1720772440,953:    302  71  87
1720772440,953:    311  71  87
1720772440,953:    314  71  87
1720772440,953:    287  71  87
1720772440,953:    249  71  87
1720772440,953:    249  71  87
1720772440,985:    312  71  87
1720772440,985:    397  71  87
1720772440,985:    430  71  87
1720772440,985:    382  71  87
1720772440,985:    303  71  87
1720772440,985:    268  71  87
1720772440,985:    295  71  87
1720772440,985:    330  71  87
1720772440,985:    320  71  87
1720772440,985:    274  71  87
1720772440,985:    249  71  87
1720772440,985:    278  71  87
1720772440,985:    334  71  87
1720772440,985:    371  71  87
1720772440,985:    379  71  87
1720772441,017:    385  71  87
1720772441,017:    405  71  87
1720772441,017:    416  71  87
1720772441,017:    386  71  87
1720772441,017:    319  71  87
1720772441,017:    265  71  87
1720772441,017:    266  71  87
1720772441,017:    304  71  87
1720772441,017:    324  71  87
1720772441,017:    295  71  87
1720772441,017:    255  71  87
1720772441,017:    268  71  87
1720772441,017:    342  71  87
1720772441,017:    414  71  87
1720772441,017:    419  71  87
1720772441,049:    361  71  87
1720772441,049:    308  71  87
1720772441,049:    301  71  87
1720772441,049:    317  71  87
1720772441,049:    310  71  87
1720772441,049:    278  71  87
1720772441,049:    259  71  87
1720772441,049:    268  71  87
1720772441,049:    283  71  87
1720772441,049:    286  71  87
1720772441,049:    299  71  87
1720772441,049:    352  71  87
1720772441,049:    427  71  87
1720772441,049:    470  71  87
1720772441,049:    461  71  87
1720772441,081:    437  71  87
1720772441,081:    438  71  87
1720772441,081:    442  71  87
1720772441,081:    400  71  87
1720772441,081:    309  71  87
1720772441,081:    230  71  87
1720772441,081:    212  71  87
1720772441,081:    233  71  87
1720772441,081:    234  71  87
1720772441,081:    202  71  87
1720772441,081:    183  71  87
1720772441,081:    210  71  87
1720772441,081:    261  71  87
1720772441,081:    296  71  87
1720772441,081:    315  71  87
1720772441,081:    348  71  87
1720772441,081:    397  71  87
1720772441,081:    411  71  87
1720772441,081:    358  71  87
1720772441,081:    280  71  87
1720772441,081:    256  71  87
1720772441,081:    302  71  87
1720772441,112:    346  71  87
1720772441,112:    313  71  87
1720772441,112:    223  71  87
1720772441,112:    178  71  87
1720772441,112:    240  71  87
1720772441,112:    356  71  87
1720772441,112:    424  71  87
1720772441,112:    409  71  87
1720772441,112:    384  71  87
1720772441,112:    428  71  87
1720772441,112:    526  71  87
1720772441,112:    579  71  87
1720772441,112:    531  71  87
1720772441,112:    431  71  87
1720772441,112:    380  71  87
1720772441,144:    405  71  87
1720772441,144:    435  71  87
1720772441,144:    393  71  87
1720772441,144:    298  71  87
1720772441,144:    238  71  87
1720772441,144:    266  71  87
1720772441,144:    341  71  87
1720772441,144:    393  71  87
1720772441,144:    411  71  87
1720772441,144:    437  71  87
1720772441,144:    487  71  87
1720772441,144:    520  71  87
1720772441,144:    504  71  87
1720772441,144:    481  71  87
1720772441,144:    513  71  87
1720772441,176:    587  71  87
1720772441,176:    602  71  87
1720772441,176:    498  71  87
1720772441,176:    343  71  87
1720772441,176:    272  71  87
1720772441,176:    320  71  87
1720772441,176:    385  71  87
1720772441,176:    364  71  87
1720772441,176:    287  71  87
1720772441,176:    279  71  87
1720772441,176:    384  71  87
1720772441,176:    498  71  87
1720772441,176:    506  71  87
1720772441,208:    426  71  87
1720772441,208:    389  71  87
1720772441,208:    468  71  87
1720772441,208:    576  71  87
1720772441,208:    576  71  87
1720772441,208:    455  71  87
1720772441,208:    337  71  87
1720772441,208:    337  71  87
1720772441,208:    423  71  87
1720772441,208:    468  71  87
1720772441,208:    407  71  87
1720772441,208:    304  71  87
1720772441,208:    268  71  87
1720772441,208:    321  71  87
1720772441,208:    393  71  87
1720772441,240:    414  71  87
1720772441,240:    392  71  87
1720772441,240:    376  71  87
1720772441,240:    382  71  87
1720772441,240:    383  71  87
1720772441,240:    365  71  87
1720772441,240:    357  71  87
1720772441,240:    389  71  87
1720772441,240:    435  71  87
1720772441,240:    443  71  87
1720772441,240:    405  71  87
1720772441,240:    372  71  87
1720772441,240:    387  71  87
1720772441,240:    422  71  87
1720772441,240:    410  71  87
1720772441,240:    341  71  87
1720772441,240:    290  71  87
1720772441,240:    325  71  87
1720772441,240:    412  71  87
1720772441,240:    452  71  87
1720772441,240:    401  71  87
1720772441,240:    334  71  87
1720772441,272:    354  71  87
1720772441,272:    457  71  87
1720772441,272:    530  71  87
1720772441,272:    479  71  87
1720772441,272:    338  71  87
1720772441,272:    232  71  87
1720772441,272:    225  71  87
1720772441,272:    258  71  87
1720772441,272:    240  71  87
1720772441,272:    162  71  87
1720772441,272:    111  71  87
1720772441,272:    148  71  87
1720772441,272:    239  71  87
1720772441,272:    302  71  87
1720772441,272:    309  71  87
1720772441,304:    307  71  87
1720772441,304:    331  71  87
1720772441,304:    350  71  87
1720772441,304:    314  71  87
1720772441,304:    232  71  87
1720772441,304:    177  71  87
1720772441,304:    188  71  87
1720772441,304:    220  71  87
1720772441,304:    209  71  87
1720772441,304:    156  71  87
1720772441,304:    132  71  87
1720772441,304:    175  71  87
1720772441,304:    240  71  87
1720772441,304:    252  71  87
1720772441,304:    207  71  87
1720772441,336:    175  71  87
1720772441,336:    213  71  87
1720772441,336:    291  71  87
1720772441,336:    331  71  87
1720772441,336:    307  71  87
1720772441,336:    270  71  87
1720772441,336:    285  71  87
1720772441,336:    344  71  87
1720772441,336:    393  71  87
1720772441,336:    396  71  87
1720772441,336:    387  71  87
1720772441,336:    412  71  87
1720772441,336:    456  71  87
1720772441,336:    456  71  87
1720772441,336:    384  71  87
1720772441,369:    301  71  87
1720772441,369:    289  71  87
1720772441,369:    358  71  87
1720772441,369:    425  71  87
1720772441,369:    411  71  87
1720772441,369:    326  71  87
1720772441,369:    244  71  87
1720772441,369:    219  71  87
1720772441,369:    239  71  87
1720772441,369:    279  71  87
1720772441,369:    338  71  87
1720772441,369:    407  71  87
1720772441,369:    439  71  87
1720772441,369:    383  71  87
1720772441,369:    266  71  87
1720772441,400:    187  71  87
1720772441,400:    206  71  87
1720772441,400:    260  71  87
1720772441,400:    238  71  87
1720772441,400:    128  71  87
1720772441,400:     44  71  87
1720772441,400:     96  71  87
1720772441,400:    263  71  87
1720772441,400:    432  71  87
1720772441,400:    525  71  87
1720772441,400:    550  71  87
1720772441,400:    511  71  87
1720772441,400:    351  71  87
1720772441,400:     -3  71  87
1720772441,400:   -542  71  87
1720772441,400:  -1156  71  87
1720772441,400:  -1701  71  87
1720772441,400:  -2082  71  87
1720772441,400:  -2236  71  87
1720772441,400:  -2099  71  87
1720772441,400:  -1584  71  87
1720772441,400:   -613  71  87
1720772441,400:    875  71  87
1720772441,432:   2907  71  87
1720772441,432:   5416  71  87
1720772441,432:   8185  71  87
1720772441,432:  10916  71  87
1720772441,432:  13399  71  87
1720772441,432:  15602  71  87
1720772441,432:  17570  71  87
1720772441,479:  19237  68  79
1720772441,479:  20384  68  79
1720772441,479:  20813  68  79
1720772441,479:  20498  68  79
1720772441,479:  19520  68  79
1720772441,479:  17897  68  79
1720772441,479:  15561  68  79
1720772441,479:  12574  68  79
1720772441,479:   9285  68  79
1720772441,479:   6197  68  79
1720772441,479:   3617  68  79
1720772441,479:   1500  68  79
1720772441,479:   -347  68  79
1720772441,479:  -1948  68  79
1720772441,479:  -3081  68  79
1720772441,479:  -3527  68  79
1720772441,479:  -3347  68  79
1720772441,479:  -2889  68  79
1720772441,479:  -2546  68  79
1720772441,479:  -2510  68  79
1720772441,479:  -2730  68  79
1720772441,479:  -3043  68  79
1720772441,479:  -3334  68  79
1720772441,479:  -3597  68  79
1720772441,479:  -3873  68  79
1720772441,479:  -4175  68  79
1720772441,479:  -4436  68  79
1720772441,479:  -4561  68  79
1720772441,479:  -4498  68  79
1720772441,479:  -4285  68  79
1720772441,511:  -4022  68  79
1720772441,511:  -3785  68  79
1720772441,511:  -3608  68  79
1720772441,511:  -3511  68  79
1720772441,511:  -3527  68  79
1720772441,511:  -3663  68  79
1720772441,511:  -3845  68  79
1720772441,511:  -3948  68  79
1720772441,511:  -3897  68  79
1720772441,511:  -3730  68  79
1720772441,511:  -3544  68  79
1720772441,511:  -3392  68  79
1720772441,511:  -3248  68  79
1720772441,511:  -3082  68  79
1720772441,511:  -2941  68  79
1720772441,543:  -2905  68  79
1720772441,543:  -2970  68  79
1720772441,543:  -3013  68  79
1720772441,543:  -2911  68  79
1720772441,543:  -2689  68  79
1720772441,543:  -2502  68  79
1720772441,543:  -2466  68  79
1720772441,543:  -2541  68  79
1720772441,543:  -2596  68  79
1720772441,543:  -2567  68  79
1720772441,543:  -2502  68  79
1720772441,543:  -2461  68  79
1720772441,543:  -2425  68  79
1720772441,543:  -2341  68  79
1720772441,543:  -2220  68  79
1720772441,543:  -2132  68  79
1720772441,543:  -2111  68  79
1720772441,543:  -2102  68  79
1720772441,543:  -2037  68  79
1720772441,543:  -1940  68  79
1720772441,543:  -1893  68  79
1720772441,543:  -1918  68  79
1720772441,543:  -1937  68  79
1720772441,574:  -1862  68  79
1720772441,574:  -1717  68  79
1720772441,574:  -1602  68  79
1720772441,574:  -1567  68  79
1720772441,574:  -1555  68  79
1720772441,574:  -1485  68  79
1720772441,574:  -1368  68  79
1720772441,605:  -1289  68  79
1720772441,605:  -1292  68  79
1720772441,605:  -1323  68  79
1720772441,605:  -1303  68  79
1720772441,605:  -1242  68  79
1720772441,605:  -1227  68  79
1720772441,605:  -1305  68  79
1720772441,605:  -1417  68  79
1720772441,605:  -1454  68  79
1720772441,605:  -1389  68  79
1720772441,605:  -1303  68  79
1720772441,605:  -1286  68  79
1720772441,605:  -1328  68  79
1720772441,605:  -1332  68  79
1720772441,605:  -1238  68  79
1720772441,637:  -1090  68  79
1720772441,637:   -983  68  79
1720772441,637:   -956  68  79
1720772441,637:   -964  68  79
1720772441,637:   -948  68  79
1720772441,637:   -910  68  79
1720772441,637:   -892  68  79
1720772441,637:   -907  68  79
1720772441,637:   -914  68  79
1720772441,637:   -873  68  79
1720772441,637:   -796  68  79
1720772441,637:   -729  68  79
1720772441,637:   -691  68  79
1720772441,637:   -655  68  79
1720772441,637:   -592  68  79
1720772441,669:   -513  68  79
1720772441,669:   -448  68  79
1720772441,669:   -407  68  79
1720772441,669:   -368  68  79
1720772441,669:   -316  68  79
1720772441,669:   -266  68  79
1720772441,669:   -236  68  79
1720772441,669:   -213  68  79
1720772441,669:   -159  68  79
1720772441,669:    -64  68  79
1720772441,669:     35  68  79
1720772441,669:     95  68  79
1720772441,669:    117  68  79
1720772441,669:    148  68  79
1720772441,669:    221  68  79
1720772441,669:    306  68  79
1720772441,669:    350  68  79
1720772441,669:    338  68  79
1720772441,669:    311  68  79
1720772441,669:    315  68  79
1720772441,669:    342  68  79
1720772441,669:    348  68  79
1720772441,669:    314  68  79
1720772441,701:    278  68  79
1720772441,701:    288  68  79
1720772441,701:    341  68  79
1720772441,701:    389  68  79
1720772441,701:    399  68  79
1720772441,701:    389  68  79
1720772441,701:    405  68  79
1720772441,701:    461  68  79
1720772441,701:    529  68  79
1720772441,701:    574  68  79
1720772441,701:    580  68  79
1720772441,701:    545  68  79
1720772441,701:    464  68  79
1720772441,701:    349  68  79
1720772441,701:    234  68  79
1720772441,733:    163  68  79
1720772441,733:    145  68  79
1720772441,733:    133  68  79
1720772441,733:     78  68  79
1720772441,733:     -5  68  79
1720772441,733:    -43  68  79
1720772441,733:     23  68  79
1720772441,733:    165  68  79
1720772441,733:    285  68  79
1720772441,733:    312  68  79
1720772441,733:    265  68  79
1720772441,733:    220  68  79
1720772441,733:    218  68  79
1720772441,733:    231  68  79
1720772441,733:    216  68  79
1720772441,765:    171  68  79
1720772441,765:    130  68  79
1720772441,765:    107  68  79
1720772441,765:     82  68  79
1720772441,765:     49  68  79
1720772441,765:     44  68  79
1720772441,765:     98  68  79
1720772441,765:    171  68  79
1720772441,765:    184  68  79
1720772441,765:    112  68  79
1720772441,765:     28  68  79
1720772441,765:     23  68  79
1720772441,765:     91  68  79
1720772441,765:    139  68  79
1720772441,765:    108  68  79
1720772441,765:     56  68  79
1720772441,765:     92  68  79
1720772441,765:    244  68  79
1720772441,765:    411  68  79
1720772441,765:    470  68  79
1720772441,765:    397  68  79
1720772441,765:    278  68  79
1720772441,796:    206  68  79
1720772441,796:    198  68  79
1720772441,796:    195  68  79
1720772441,796:    147  68  79
1720772441,796:     63  68  79
1720772441,796:    -10  68  79
1720772441,796:    -32  68  79
1720772441,796:     -5  68  79
1720772441,826:     47  68  79
1720772441,826:    109  68  79
1720772441,826:    182  68  79
1720772441,826:    258  68  79
1720772441,826:    317  68  79
1720772441,826:    337  68  79
1720772441,826:    320  68  79
1720772441,826:    289  68  79
1720772441,826:    274  68  79
1720772441,826:    284  68  79
1720772441,826:    304  68  79
1720772441,826:    311  68  79
1720772441,826:    299  68  79
1720772441,826:    280  68  79
1720772441,826:    277  68  79
1720772441,858:    300  68  79
1720772441,858:    339  68  79
1720772441,858:    367  68  79
1720772441,858:    355  68  79
1720772441,858:    299  68  79
1720772441,858:    226  68  79
1720772441,858:    176  68  79
1720772441,858:    174  68  79
1720772441,858:    207  68  79
1720772441,858:    231  68  79
1720772441,858:    216  68  79
1720772441,858:    178  68  79
1720772441,858:    170  68  79
1720772441,858:    220  68  79
1720772441,858:    293  68  79
1720772441,890:    322  68  79
1720772441,890:    278  68  79
1720772441,890:    208  68  79
1720772441,890:    179  68  79
1720772441,890:    205  68  79
1720772441,890:    236  68  79
1720772441,890:    220  68  79
1720772441,890:    175  68  79
1720772441,890:    151  68  79
1720772441,890:    173  68  79
1720772441,890:    211  68  79
1720772441,890:    226  68  79
1720772441,890:    224  68  79
1720772441,890:    234  68  79
1720772441,890:    261  68  79
1720772441,890:    281  68  79
1720772441,890:    273  68  79
1720772441,890:    245  68  79
1720772441,890:    213  68  79
1720772441,890:    181  68  79
1720772441,890:    157  68  79
1720772441,890:    159  68  79
1720772441,922:    199  68  79
1720772441,922:    241  68  79
1720772441,922:    237  68  79
1720772441,922:    191  68  79
1720772441,922:    167  68  79
1720772441,922:    215  68  79
1720772441,922:    296  68  79
1720772441,922:    314  68  79
1720772441,922:    239  68  79
1720772441,922:    149  68  79
1720772441,922:    148  68  79
1720772441,922:    238  68  79
1720772441,922:    320  68  79
1720772441,922:    310  68  79
1720772441,922:    228  68  79
1720772441,954:    159  68  79
1720772441,954:    146  68  79
1720772441,954:    151  68  79
1720772441,954:    118  68  79
1720772441,954:     43  68  79
1720772441,954:    -26  68  79
1720772441,954:    -49  68  79
1720772441,954:    -30  68  79
1720772441,986:      8  68  79
1720772441,986:     54  68  79
1720772441,986:    115  68  79
1720772441,986:    182  68  79
1720772441,986:    225  68  79
1720772441,986:    221  68  79
1720772441,986:    188  68  79
1720772441,986:    169  68  79
1720772441,986:    184  68  79
1720772441,986:    203  68  79
1720772441,986:    185  68  79
1720772441,986:    141  68  79
1720772441,986:    135  68  79
1720772441,986:    199  68  79
1720772441,986:    279  68  79
1720772441,986:    284  68  79
1720772441,986:    202  68  79
1720772441,986:    134  68  79
1720772441,986:    174  68  79
1720772441,986:    280  68  79
1720772441,986:    313  68  79
1720772441,986:    213  68  79
1720772442,019:     88  68  79
1720772442,019:     92  68  79
1720772442,019:    232  68  79
1720772442,019:    355  68  79
1720772442,019:    336  68  79
1720772442,019:    229  68  79
1720772442,019:    185  68  79
1720772442,019:    251  68  79
1720772442,019:    306  68  79
1720772442,019:    228  68  79
1720772442,019:     60  68  79
1720772442,019:    -37  68  79
1720772442,019:     14  68  79
1720772442,019:    114  68  79
1720772442,019:    130  68  79
1720772442,050:     61  68  79
1720772442,050:     29  68  79
1720772442,050:    106  68  79
1720772442,050:    221  68  79
1720772442,050:    258  68  79
1720772442,050:    207  68  79
1720772442,050:    160  68  79
1720772442,050:    180  68  79
1720772442,050:    220  68  79
1720772442,050:    203  68  79
1720772442,050:    132  68  79
1720772442,050:     99  68  79
1720772442,050:    152  68  79
1720772442,050:    235  68  79
1720772442,050:    262  68  79
1720772442,082:    226  68  79
1720772442,082:    199  68  79
1720772442,082:    228  68  79
1720772442,082:    270  68  79
1720772442,082:    254  68  79
1720772442,082:    179  68  79
1720772442,082:    126  68  79
1720772442,082:    149  68  79
1720772442,082:    213  68  79
1720772442,082:    240  68  79
1720772442,082:    206  68  79
1720772442,082:    166  68  79
1720772442,082:    172  68  79
1720772442,082:    218  68  79
1720772442,082:    255  68  79
1720772442,082:    258  68  79
1720772442,082:    249  68  79
1720772442,082:    252  68  79
1720772442,082:    256  68  79
1720772442,082:    236  68  79
1720772442,082:    202  68  79
1720772442,082:    196  68  79
1720772442,082:    229  68  79
1720772442,113:    255  68  79
1720772442,113:    216  68  79
1720772442,113:    119  68  79
1720772442,113:     43  68  79
1720772442,113:     57  68  79
1720772442,113:    138  68  79
1720772442,113:    195  68  79
1720772442,113:    176  68  79
1720772442,113:    126  68  79
1720772442,113:    127  68  79
1720772442,113:    200  68  79
1720772442,113:    272  68  79
1720772442,113:    268  68  79
1720772442,113:    206  68  79
1720772442,113:    171  68  79
1720772442,144:    206  68  79
1720772442,144:    261  68  79
1720772442,144:    255  68  79
1720772442,144:    183  68  79
1720772442,144:    131  68  79
1720772442,144:    174  68  79
1720772442,144:    286  68  79
1720772442,144:    371  68  79
1720772442,144:    365  68  79
1720772442,144:    303  68  79
1720772442,144:    256  68  79
1720772442,144:    253  68  79
1720772442,144:    253  68  79
1720772442,144:    218  68  79
1720772442,144:    165  68  79
1720772442,175:    139  68  79
1720772442,175:    151  68  79
1720772442,175:    167  68  79
1720772442,175:    154  68  79
1720772442,175:    125  68  79
1720772442,175:    124  68  79
1720772442,175:    163  68  79
1720772442,175:    208  68  79
1720772442,175:    217  68  79
1720772442,175:    188  68  79
1720772442,175:    162  68  79
1720772442,175:    167  68  79
1720772442,207:    194  68  79
1720772442,207:    215  68  79
1720772442,207:    220  68  79
1720772442,207:    223  68  79
1720772442,207:    232  68  79
1720772442,207:    235  68  79
1720772442,207:    228  68  79
1720772442,207:    226  68  79
1720772442,207:    249  68  79
1720772442,207:    292  68  79
1720772442,207:    327  68  79
1720772442,207:    330  68  79
1720772442,207:    309  68  79
1720772442,207:    287  68  79
1720772442,207:    275  68  79
1720772442,207:    264  68  79
1720772442,207:    245  68  79
1720772442,207:    218  68  79
1720772442,207:    193  68  79
1720772442,207:    177  68  79
1720772442,207:    169  68  79
1720772442,207:    164  68  79
1720772442,239:    154  68  79
1720772442,239:    134  68  79
1720772442,239:    105  68  79
1720772442,239:     73  68  79
1720772442,239:     46  68  79
1720772442,239:     32  68  79
1720772442,239:     28  68  79
1720772442,239:     20  68  79
1720772442,271:     -3  68  79
1720772442,271:    -29  68  79
1720772442,271:    -25  68  79
1720772442,271:     51  68  79
1720772442,271:    204  68  79
1720772442,271:    386  68  79
1720772442,271:    511  68  79
1720772442,271:    516  68  79
1720772442,271:    389  68  79
1720772442,271:    161  68  79
1720772442,271:   -148  68  79
1720772442,271:   -553  68  79
1720772442,271:  -1070  68  79
1720772442,271:  -1648  68  79
1720772442,271:  -2150  68  79
1720772442,271:  -2407  68  79
1720772442,271:  -2298  68  79
1720772442,271:  -1782  68  79
1720772442,271:   -856  68  79
1720772442,271:    504  68  79
1720772442,271:   2343  68  79
1720772442,271:   4641  68  79
1720772442,303:   7234  68  79
1720772442,303:   9855  68  79
1720772442,303:  12285  68  79
1720772442,303:  14466  68  79
1720772442,303:  16434  68  79
1720772442,303:  18135  68  79
1720772442,303:  19349  68  79
1720772442,303:  19841  68  79
1720772442,303:  19560  68  79
1720772442,303:  18645  68  79
1720772442,303:  17212  68  79
1720772442,303:  15215  68  79
1720772442,303:  12573  68  79
1720772442,303:   9454  68  79
1720772442,303:   6322  68  79
1720772442,334:   3635  70  72
1720772442,334:   1513  70  72
1720772442,334:   -237  70  72
1720772442,334:  -1785  70  72
1720772442,334:  -3016  70  72
1720772442,334:  -3659  70  72
1720772442,334:  -3626  70  72
1720772442,334:  -3183  70  72
1720772442,334:  -2759  70  72
1720772442,334:  -2627  70  72
1720772442,334:  -2774  70  72
1720772442,334:  -3032  70  72
1720772442,334:  -3275  70  72
1720772442,334:  -3496  70  72
1720772442,334:  -3730  70  72
1720772442,366:  -3980  70  72
1720772442,366:  -4203  70  72
1720772442,366:  -4350  70  72
1720772442,366:  -4395  70  72
1720772442,366:  -4335  70  72
1720772442,366:  -4185  70  72
1720772442,366:  -3976  70  72
1720772442,366:  -3770  70  72
1720772442,366:  -3652  70  72
1720772442,366:  -3675  70  72
1720772442,366:  -3810  70  72
1720772442,366:  -3943  70  72
1720772442,366:  -3951  70  72
1720772442,366:  -3809  70  72
1720772442,366:  -3598  70  72
1720772442,398:  -3419  70  72
1720772442,398:  -3301  70  72
1720772442,398:  -3210  70  72
1720772442,398:  -3127  70  72
1720772442,398:  -3090  70  72
1720772442,398:  -3139  70  72
1720772442,398:  -3242  70  72
1720772442,398:  -3294  70  72
1720772442,398:  -3225  70  72
1720772442,398:  -3066  70  72
1720772442,398:  -2906  70  72
1720772442,398:  -2797  70  72
1720772442,398:  -2713  70  72
1720772442,398:  -2618  70  72
1720772442,398:  -2530  70  72
1720772442,430:  -2496  70  72
1720772442,430:  -2513  70  72
1720772442,430:  -2522  70  72
1720772442,430:  -2472  70  72
1720772442,430:  -2381  70  72
1720772442,430:  -2304  70  72
1720772442,430:  -2251  70  72
1720772442,430:  -2185  70  72
1720772442,430:  -2084  70  72
1720772442,430:  -1990  70  72
1720772442,430:  -1955  70  72
1720772442,430:  -1967  70  72
1720772442,430:  -1955  70  72
1720772442,430:  -1880  70  72
1720772442,430:  -1794  70  72
1720772442,430:  -1776  70  72
1720772442,430:  -1828  70  72
1720772442,430:  -1867  70  72
1720772442,430:  -1820  70  72
1720772442,430:  -1715  70  72
1720772442,430:  -1638  70  72
1720772442,430:  -1623  70  72
1720772442,430:  -1611  70  72
1720772442,462:  -1535  70  72
1720772442,462:  -1408  70  72
1720772442,462:  -1315  70  72
1720772442,462:  -1306  70  72
1720772442,462:  -1342  70  72
1720772442,462:  -1349  70  72
1720772442,462:  -1322  70  72
1720772442,493:  -1318  70  72
1720772442,493:  -1372  70  72
1720772442,493:  -1438  70  72
1720772442,493:  -1437  70  72
1720772442,493:  -1368  70  72
1720772442,493:  -1303  70  72
1720772442,493:  -1297  70  72
1720772442,493:  -1313  70  72
1720772442,493:  -1270  70  72
1720772442,493:  -1161  70  72
1720772442,493:  -1066  70  72
1720772442,493:  -1051  70  72
1720772442,493:  -1074  70  72
1720772442,493:  -1037  70  72
1720772442,493:   -917  70  72
1720772442,525:   -802  70  72
1720772442,525:   -779  70  72
1720772442,525:   -820  70  72
1720772442,525:   -811  70  72
1720772442,525:   -708  70  72
1720772442,525:   -593  70  72
1720772442,525:   -571  70  72
1720772442,525:   -629  70  72
1720772442,525:   -658  70  72
1720772442,525:   -602  70  72
1720772442,525:   -531  70  72
1720772442,525:   -538  70  72
1720772442,525:   -598  70  72
1720772442,525:   -591  70  72
1720772442,525:   -466  70  72
1720772442,525:   -320  70  72
1720772442,525:   -277  70  72
1720772442,525:   -325  70  72
1720772442,525:   -329  70  72
1720772442,525:   -217  70  72
1720772442,525:    -85  70  72
1720772442,525:    -75  70  72
1720772442,525:   -190  70  72
1720772442,557:   -282  70  72
1720772442,557:   -230  70  72
1720772442,557:    -85  70  72
1720772442,557:     -5  70  72
1720772442,557:    -60  70  72
1720772442,557:   -165  70  72
1720772442,557:   -197  70  72
1720772442,557:   -140  70  72
1720772442,557:    -86  70  72
1720772442,557:   -111  70  72
1720772442,557:   -200  70  72
1720772442,557:   -279  70  72
1720772442,557:   -312  70  72
1720772442,557:   -320  70  72
1720772442,557:   -339  70  72
1720772442,589:   -375  70  72
1720772442,589:   -403  70  72
1720772442,589:   -409  70  72
1720772442,589:   -407  70  72
1720772442,589:   -417  70  72
1720772442,589:   -438  70  72
1720772442,589:   -450  70  72
1720772442,589:   -440  70  72
1720772442,589:   -422  70  72
1720772442,589:   -417  70  72
1720772442,589:   -422  70  72
1720772442,589:   -409  70  72
1720772442,589:   -365  70  72
1720772442,589:   -320  70  72
1720772442,589:   -317  70  72
1720772442,621:   -361  70  72
1720772442,621:   -410  70  72
1720772442,621:   -428  70  72
1720772442,621:   -426  70  72
1720772442,621:   -445  70  72
1720772442,621:   -492  70  72
1720772442,621:   -525  70  72
1720772442,621:   -515  70  72
1720772442,621:   -483  70  72
1720772442,621:   -466  70  72
1720772442,621:   -454  70  72
1720772442,621:   -412  70  72
1720772442,621:   -346  70  72
1720772442,621:   -326  70  72
1720772442,621:   -399  70  72
1720772442,653:   -517  70  72
1720772442,653:   -568  70  72
1720772442,653:   -514  70  72
1720772442,653:   -441  70  72
1720772442,653:   -458  70  72
1720772442,653:   -565  70  72
1720772442,653:   -650  70  72
1720772442,653:   -622  70  72
1720772442,653:   -522  70  72
1720772442,653:   -455  70  72
1720772442,653:   -465  70  72
1720772442,653:   -490  70  72
1720772442,653:   -463  70  72
1720772442,653:   -406  70  72
1720772442,653:   -391  70  72
1720772442,653:   -432  70  72
1720772442,653:   -455  70  72
1720772442,653:   -395  70  72
1720772442,653:   -294  70  72
1720772442,653:   -266  70  72
1720772442,653:   -358  70  72
1720772442,653:   -478  70  72
1720772442,685:   -503  70  72
1720772442,685:   -419  70  72
1720772442,685:   -345  70  72
1720772442,685:   -393  70  72
1720772442,685:   -530  70  72
1720772442,685:   -622  70  72
1720772442,685:   -578  70  72
1720772442,685:   -450  70  72
1720772442,685:   -363  70  72
1720772442,685:   -380  70  72
1720772442,685:   -453  70  72
1720772442,685:   -495  70  72
1720772442,685:   -471  70  72
1720772442,685:   -414  70  72
1720772442,685:   -375  70  72
1720772442,716:   -381  70  72
1720772442,716:   -434  70  72
1720772442,716:   -511  70  72
1720772442,716:   -568  70  72
1720772442,716:   -569  70  72
1720772442,716:   -520  70  72
1720772442,716:   -473  70  72
1720772442,716:   -473  70  72
1720772442,716:   -506  70  72
1720772442,716:   -523  70  72
1720772442,716:   -503  70  72
1720772442,716:   -482  70  72
1720772442,716:   -497  70  72
1720772442,716:   -527  70  72
1720772442,716:   -517  70  72
1720772442,762:   -459  70  72
1720772442,762:   -421  70  72
1720772442,762:   -462  70  72
1720772442,762:   -548  70  72
1720772442,762:   -577  70  72
1720772442,762:   -503  70  72
1720772442,762:   -403  70  72
1720772442,762:   -395  70  72
1720772442,762:   -498  70  72
1720772442,762:   -609  70  72
1720772442,762:   -619  70  72
1720772442,762:   -541  70  72
1720772442,762:   -487  70  72
1720772442,762:   -531  70  72
1720772442,762:   -625  70  72
1720772442,762:   -667  70  72
1720772442,762:   -625  70  72
1720772442,762:   -575  70  72
1720772442,762:   -594  70  72
1720772442,762:   -663  70  72
1720772442,762:   -690  70  72
1720772442,762:   -632  70  72
1720772442,762:   -545  70  72
1720772442,793:   -517  70  72
1720772442,793:   -565  70  72
1720772442,793:   -612  70  72
1720772442,793:   -589  70  72
1720772442,793:   -516  70  72
1720772442,793:   -471  70  72
1720772442,793:   -501  70  72
1720772442,793:   -571  70  72
1720772442,793:   -618  70  72
1720772442,793:   -627  70  72
1720772442,793:   -635  70  72
1720772442,793:   -665  70  72
1720772442,793:   -694  70  72
1720772442,793:   -686  70  72
1720772442,793:   -650  70  72
1720772442,824:   -630  70  72
1720772442,824:   -646  70  72
1720772442,824:   -660  70  72
1720772442,824:   -623  70  72
1720772442,824:   -549  70  72
1720772442,824:   -507  70  72
1720772442,824:   -536  70  72
1720772442,824:   -591  70  72
1720772442,824:   -588  70  72
1720772442,824:   -523  70  72
1720772442,824:   -475  70  72
1720772442,824:   -516  70  72
1720772442,824:   -603  70  72
1720772442,824:   -623  70  72
1720772442,824:   -532  70  72
1720772442,856:   -413  70  72
1720772442,856:   -384  70  72
1720772442,856:   -456  70  72
1720772442,856:   -525  70  72
1720772442,856:   -515  70  72
1720772442,856:   -468  70  72
1720772442,856:   -489  70  72
1720772442,856:   -604  70  72
1720772442,856:   -724  70  72
1720772442,856:   -759  70  72
1720772442,856:   -718  70  72
1720772442,856:   -674  70  72
1720772442,856:   -660  70  72
1720772442,856:   -639  70  72
1720772442,856:   -580  70  72
1720772442,856:   -523  70  72
1720772442,856:   -518  70  72
1720772442,856:   -554  70  72
1720772442,856:   -564  70  72
1720772442,856:   -530  70  72
1720772442,856:   -510  70  72
1720772442,856:   -562  70  72
1720772442,888:   -650  70  72
1720772442,888:   -680  70  72
1720772442,888:   -620  70  72
1720772442,888:   -542  70  72
1720772442,888:   -533  70  72
1720772442,888:   -596  70  72
1720772442,888:   -644  70  72
1720772442,888:   -619  70  72
1720772442,920:   -557  70  72
1720772442,920:   -526  70  72
1720772442,920:   -544  70  72
1720772442,920:   -560  70  72
1720772442,920:   -543  70  72
1720772442,920:   -523  70  72
1720772442,920:   -544  70  72
1720772442,920:   -592  70  72
1720772442,920:   -600  70  72
1720772442,920:   -542  70  72
1720772442,920:   -477  70  72
1720772442,920:   -485  70  72
1720772442,920:   -563  70  72
1720772442,920:   -618  70  72
1720772442,920:   -579  70  72
1720772442,920:   -489  70  72
1720772442,920:   -462  70  72
1720772442,920:   -546  70  72
1720772442,920:   -655  70  72
1720772442,920:   -674  70  72
1720772442,920:   -595  70  72
1720772442,920:   -528  70  72
1720772442,952:   -566  70  72
1720772442,952:   -677  70  72
1720772442,952:   -742  70  72
1720772442,952:   -697  70  72
1720772442,952:   -600  70  72
1720772442,952:   -556  70  72
1720772442,952:   -597  70  72
1720772442,952:   -666  70  72
1720772442,952:   -692  70  72
1720772442,952:   -671  70  72
1720772442,952:   -644  70  72
1720772442,952:   -634  70  72
1720772442,952:   -628  70  72
1720772442,952:   -617  70  72
1720772442,952:   -621  70  72
1720772442,984:   -653  70  72
1720772442,984:   -689  70  72
1720772442,984:   -684  70  72
1720772442,984:   -637  70  72
1720772442,984:   -604  70  72
1720772442,984:   -625  70  72
1720772442,984:   -678  70  72
1720772442,984:   -698  70  72
1720772442,984:   -665  70  72
1720772442,984:   -624  70  72
1720772442,984:   -624  70  72
1720772442,984:   -655  70  72
1720772442,984:   -667  70  72
1720772442,984:   -646  70  72
1720772442,984:   -634  70  72
1720772443,016:   -661  70  72
1720772443,016:   -698  70  72
1720772443,016:   -698  70  72
1720772443,016:   -660  70  72
1720772443,016:   -628  70  72
1720772443,016:   -619  70  72
1720772443,016:   -591  70  72
1720772443,016:   -511  70  72
1720772443,016:   -422  70  72
1720772443,016:   -408  70  72
1720772443,016:   -492  70  72
1720772443,016:   -592  70  72
1720772443,016:   -621  70  72
1720772443,016:   -589  70  72
1720772443,016:   -586  70  72
1720772443,048:   -661  70  72
1720772443,048:   -754  70  72
1720772443,048:   -768  70  72
1720772443,048:   -688  70  72
1720772443,048:   -591  70  72
1720772443,048:   -547  70  72
1720772443,048:   -547  70  72
1720772443,048:   -536  70  72
1720772443,048:   -499  70  72
1720772443,048:   -482  70  72
1720772443,048:   -522  70  72
1720772443,048:   -595  70  72
1720772443,048:   -633  70  72
1720772443,048:   -605  70  72
1720772443,048:   -540  70  72
1720772443,080:   -489  70  72
1720772443,080:   -470  70  72
1720772443,080:   -462  70  72
1720772443,080:   -446  70  72
1720772443,080:   -437  70  72
1720772443,080:   -465  70  72
1720772443,080:   -530  70  72
1720772443,080:   -595  70  72
1720772443,080:   -623  70  72
1720772443,080:   -623  70  72
1720772443,080:   -642  70  72
1720772443,080:   -705  70  72
1720772443,080:   -776  70  72
1720772443,080:   -790  70  72
1720772443,080:   -729  70  72
1720772443,110:   -655  70  72
1720772443,110:   -634  70  72
1720772443,110:   -659  70  72
1720772443,110:   -652  70  72
1720772443,110:   -561  70  72
1720772443,110:   -427  70  72
1720772443,110:   -323  70  72
1720772443,110:   -273  70  72
1720772443,110:   -244  70  72
1720772443,110:   -235  70  72
1720772443,110:   -320  70  72
1720772443,110:   -579  70  72
1720772443,110:  -1010  70  72
1720772443,110:  -1535  70  72
1720772443,110:  -2078  70  72
1720772443,143:  -2581  70  72
1720772443,143:  -2954  70  72
1720772443,143:  -3049  70  72
1720772443,143:  -2733  70  72
1720772443,143:  -1973  70  72
1720772443,143:   -806  70  72
1720772443,143:    788  70  72
1720772443,143:   2886  70  72
1720772443,143:   5457  70  72
1720772443,143:   8235  70  72
1720772443,143:  10847  70  72
1720772443,143:  13104  70  72
1720772443,143:  15086  70  72
1720772443,143:  16894  70  72
1720772443,143:  18379  70  72
1720772443,143:  19206  70  72
1720772443,143:  19195  70  72
1720772443,143:  18481  70  72
1720772443,143:  17282  70  72
1720772443,143:  15577  70  72
1720772443,143:  13173  70  72
1720772443,143:  10110  70  72
1720772443,143:   6874  70  72
1720772443,174:   4071  72  70
1720772443,174:   1909  72  70
1720772443,174:    119  72  70
1720772443,174:  -1591  72  70
1720772443,174:  -3106  72  70
1720772443,174:  -4015  72  70
1720772443,174:  -4118  72  70
1720772443,174:  -3701  72  70
1720772443,174:  -3279  72  70
1720772443,174:  -3157  72  70
1720772443,174:  -3282  72  70
1720772443,174:  -3474  72  70
1720772443,206:  -3667  72  70
1720772443,206:  -3893  72  70
1720772443,206:  -4157  72  70
1720772443,206:  -4395  72  70
1720772443,206:  -4573  72  70
1720772443,206:  -4727  72  70
1720772443,206:  -4871  72  70
1720772443,206:  -4924  72  70
1720772443,206:  -4797  72  70
1720772443,206:  -4525  72  70
1720772443,206:  -4283  72  70
1720772443,206:  -4223  72  70
1720772443,206:  -4340  72  70
1720772443,206:  -4497  72  70
1720772443,206:  -4570  72  70
1720772443,206:  -4544  72  70
1720772443,206:  -4464  72  70
1720772443,206:  -4343  72  70
1720772443,206:  -4152  72  70
1720772443,206:  -3894  72  70
1720772443,206:  -3656  72  70
1720772443,206:  -3536  72  70
1720772443,206:  -3548  72  70
1720772443,238:  -3603  72  70
1720772443,238:  -3610  72  70
1720772443,238:  -3556  72  70
1720772443,238:  -3489  72  70
1720772443,238:  -3433  72  70
1720772443,238:  -3357  72  70
1720772443,238:  -3223  72  70
1720772443,238:  -3062  72  70
1720772443,238:  -2949  72  70
1720772443,238:  -2923  72  70
1720772443,238:  -2938  72  70
1720772443,238:  -2921  72  70
1720772443,238:  -2852  72  70
1720772443,238:  -2776  72  70
1720772443,238:  -2730  72  70
1720772443,269:  -2693  72  70
1720772443,269:  -2621  72  70
1720772443,269:  -2518  72  70
1720772443,269:  -2437  72  70
1720772443,269:  -2420  72  70
1720772443,269:  -2435  72  70
1720772443,269:  -2420  72  70
1720772443,301:  -2359  72  70
1720772443,301:  -2294  72  70
1720772443,301:  -2260  72  70
1720772443,301:  -2236  72  70
1720772443,301:  -2175  72  70
1720772443,301:  -2081  72  70
1720772443,301:  -2018  72  70
1720772443,301:  -2029  72  70
1720772443,301:  -2074  72  70
1720772443,301:  -2067  72  70
1720772443,301:  -1978  72  70
1720772443,301:  -1870  72  70
1720772443,301:  -1826  72  70
1720772443,301:  -1860  72  70
1720772443,301:  -1906  72  70
1720772443,301:  -1904  72  70
1720772443,301:  -1864  72  70
1720772443,301:  -1835  72  70
1720772443,301:  -1839  72  70
1720772443,301:  -1849  72  70
1720772443,301:  -1837  72  70
1720772443,301:  -1804  72  70
1720772443,301:  -1767  72  70
1720772443,349:  -1721  72  70
1720772443,349:  -1642  72  70
1720772443,349:  -1538  72  70
1720772443,349:  -1453  72  70
1720772443,349:  -1418  72  70
1720772443,349:  -1412  72  70
1720772443,349:  -1383  72  70
1720772443,349:  -1312  72  70
1720772443,349:  -1238  72  70
1720772443,349:  -1199  72  70
1720772443,349:  -1184  72  70
1720772443,349:  -1145  72  70
1720772443,349:  -1063  72  70
1720772443,349:   -968  72  70
1720772443,349:   -895  72  70
1720772443,349:   -845  72  70
1720772443,349:   -787  72  70
1720772443,349:   -713  72  70
1720772443,349:   -648  72  70
1720772443,349:   -620  72  70
1720772443,349:   -621  72  70
1720772443,349:   -618  72  70
1720772443,349:   -593  72  70
1720772443,349:   -560  72  70
1720772443,349:   -539  72  70
1720772443,349:   -527  72  70
1720772443,349:   -500  72  70
1720772443,349:   -438  72  70
1720772443,349:   -355  72  70
1720772443,349:   -291  72  70
1720772443,381:   -265  72  70
1720772443,381:   -261  72  70
1720772443,381:   -246  72  70
1720772443,381:   -216  72  70
1720772443,381:   -199  72  70
1720772443,381:   -221  72  70
1720772443,381:   -259  72  70
1720772443,381:   -266  72  70
1720772443,381:   -231  72  70
1720772443,381:   -203  72  70
1720772443,381:   -233  72  70
1720772443,381:   -302  72  70
1720772443,381:   -337  72  70
1720772443,381:   -302  72  70
1720772443,381:   -250  72  70
1720772443,413:   -261  72  70
1720772443,413:   -339  72  70
1720772443,413:   -411  72  70
1720772443,413:   -415  72  70
1720772443,413:   -376  72  70
1720772443,413:   -360  72  70
1720772443,413:   -386  72  70
1720772443,445:   -407  72  70
1720772443,445:   -387  72  70
1720772443,445:   -355  72  70
1720772443,445:   -363  72  70
1720772443,445:   -411  72  70
1720772443,445:   -444  72  70
1720772443,445:   -426  72  70
1720772443,445:   -380  72  70
1720772443,445:   -356  72  70
1720772443,445:   -366  72  70
1720772443,445:   -381  72  70
1720772443,445:   -380  72  70
1720772443,445:   -381  72  70
1720772443,445:   -407  72  70
1720772443,445:   -442  72  70
1720772443,476:   -445  72  70
1720772443,476:   -406  72  70
1720772443,476:   -371  72  70
1720772443,476:   -387  72  70
1720772443,476:   -445  72  70
1720772443,476:   -487  72  70
1720772443,476:   -475  72  70
1720772443,476:   -436  72  70
1720772443,476:   -419  72  70
1720772443,476:   -424  72  70
1720772443,476:   -401  72  70
1720772443,476:   -325  72  70
1720772443,476:   -258  72  70
1720772443,476:   -284  72  70
1720772443,476:   -402  72  70
1720772443,476:   -508  72  70
1720772443,476:   -504  72  70
1720772443,476:   -418  72  70
1720772443,476:   -381  72  70
1720772443,476:   -472  72  70
1720772443,476:   -626  72  70
1720772443,476:   -702  72  70
1720772443,476:   -635  72  70
1720772443,508:   -499  72  70
1720772443,508:   -416  72  70
1720772443,508:   -429  72  70
1720772443,508:   -473  72  70
1720772443,508:   -469  72  70
1720772443,508:   -406  72  70
1720772443,508:   -334  72  70
1720772443,508:   -302  72  70
1720772443,508:   -310  72  70
1720772443,508:   -328  72  70
1720772443,508:   -338  72  70
1720772443,508:   -345  72  70
1720772443,508:   -359  72  70
1720772443,508:   -377  72  70
1720772443,508:   -384  72  70
1720772443,540:   -372  72  70
1720772443,540:   -348  72  70
1720772443,540:   -322  72  70
1720772443,540:   -292  72  70
1720772443,540:   -252  72  70
1720772443,540:   -207  72  70
1720772443,540:   -178  72  70
1720772443,540:   -171  72  70
1720772443,540:   -172  72  70
1720772443,540:   -162  72  70
1720772443,540:   -150  72  70
1720772443,540:   -163  72  70
1720772443,540:   -217  72  70
1720772443,540:   -284  72  70
1720772443,540:   -318  72  70
1720772443,571:   -309  72  70
1720772443,571:   -290  72  70
1720772443,571:   -292  72  70
1720772443,571:   -300  72  70
1720772443,571:   -271  72  70
1720772443,571:   -192  72  70
1720772443,571:   -109  72  70
1720772443,571:    -82  72  70
1720772443,571:   -123  72  70
1720772443,571:   -181  72  70
1720772443,571:   -208  72  70
1720772443,571:   -204  72  70
1720772443,571:   -200  72  70
1720772443,571:   -217  72  70
1720772443,571:   -248  72  70
1720772443,571:   -278  72  70
1720772443,571:   -308  72  70
1720772443,571:   -332  72  70
1720772443,571:   -329  72  70
1720772443,571:   -285  72  70
1720772443,571:   -225  72  70
1720772443,571:   -193  72  70
1720772443,603:   -203  72  70
1720772443,603:   -215  72  70
1720772443,603:   -183  72  70
1720772443,603:   -124  72  70
1720772443,603:   -102  72  70
1720772443,603:   -155  72  70
1720772443,603:   -231  72  70
1720772443,603:   -248  72  70
1720772443,603:   -195  72  70
1720772443,603:   -154  72  70
1720772443,603:   -201  72  70
1720772443,603:   -298  72  70
1720772443,603:   -332  72  70
1720772443,603:   -250  72  70
1720772443,603:   -130  72  70
1720772443,633:    -96  72  70
1720772443,633:   -166  72  70
1720772443,633:   -241  72  70
1720772443,633:   -228  72  70
1720772443,633:   -155  72  70
1720772443,633:   -125  72  70
1720772443,633:   -181  72  70
1720772443,633:   -260  72  70
1720772443,665:   -282  72  70
1720772443,665:   -251  72  70
1720772443,665:   -230  72  70
1720772443,665:   -244  72  70
1720772443,665:   -249  72  70
1720772443,665:   -201  72  70
1720772443,665:   -133  72  70
1720772443,665:   -119  72  70
1720772443,665:   -172  72  70
1720772443,665:   -226  72  70
1720772443,665:   -217  72  70
1720772443,665:   -167  72  70
1720772443,665:   -155  72  70
1720772443,665:   -212  72  70
1720772443,665:   -278  72  70
1720772443,665:   -277  72  70
1720772443,665:   -213  72  70
1720772443,665:   -161  72  70
1720772443,665:   -166  72  70
1720772443,665:   -195  72  70
1720772443,665:   -187  72  70
1720772443,665:   -142  72  70
1720772443,697:   -125  72  70
1720772443,697:   -177  72  70
1720772443,697:   -256  72  70
1720772443,697:   -283  72  70
1720772443,697:   -243  72  70
1720772443,697:   -197  72  70
1720772443,697:   -202  72  70
1720772443,697:   -239  72  70
1720772443,697:   -245  72  70
1720772443,697:   -199  72  70
1720772443,697:   -143  72  70
1720772443,697:   -123  72  70
1720772443,697:   -127  72  70
1720772443,697:   -118  72  70
1720772443,697:    -93  72  70
1720772443,727:    -86  72  70
1720772443,727:   -107  72  70
1720772443,727:   -119  72  70
1720772443,727:    -88  72  70
1720772443,727:    -40  72  70
1720772443,727:    -30  72  70
1720772443,727:    -71  72  70
1720772443,727:   -106  72  70
1720772443,727:    -88  72  70
1720772443,727:    -46  72  70
1720772443,727:    -51  72  70
1720772443,727:   -123  72  70
1720772443,727:   -203  72  70
1720772443,727:   -219  72  70
1720772443,727:   -178  72  70
1720772443,759:   -154  72  70
1720772443,759:   -196  72  70
1720772443,759:   -267  72  70
1720772443,759:   -278  72  70
1720772443,759:   -195  72  70
1720772443,759:    -76  72  70
1720772443,759:    -11  72  70
1720772443,759:    -27  72  70
1720772443,759:    -68  72  70
1720772443,759:    -67  72  70
1720772443,759:    -32  72  70
1720772443,759:    -31  72  70
1720772443,759:   -114  72  70
1720772443,759:   -240  72  70
1720772443,759:   -317  72  70
1720772443,791:   -305  72  70
1720772443,791:   -252  72  70
1720772443,791:   -236  72  70
1720772443,791:   -272  72  70
1720772443,791:   -308  72  70
1720772443,791:   -292  72  70
1720772443,791:   -231  72  70
1720772443,791:   -175  72  70
1720772443,791:   -152  72  70
1720772443,791:   -150  72  70
1720772443,791:   -146  72  70
1720772443,791:   -134  72  70
1720772443,791:   -119  72  70
1720772443,791:    -94  72  70
1720772443,791:    -60  72  70
1720772443,823:    -39  72  70
1720772443,823:    -58  72  70
1720772443,823:   -112  72  70
1720772443,823:   -158  72  70
1720772443,823:   -154  72  70
1720772443,823:   -116  72  70
1720772443,823:   -100  72  70
1720772443,823:   -128  72  70
1720772443,823:   -160  72  70
1720772443,823:   -136  72  70
1720772443,823:    -61  72  70
1720772443,823:     -5  72  70
1720772443,823:    -20  72  70
1720772443,823:    -72  72  70
1720772443,823:    -83  72  70
1720772443,854:    -42  72  70
1720772443,854:    -22  72  70
1720772443,854:    -82  72  70
1720772443,854:   -173  72  70
1720772443,854:   -187  72  70
1720772443,854:    -97  72  70
1720772443,854:     -6  72  70
1720772443,854:    -20  72  70
1720772443,854:   -110  72  70
1720772443,854:   -146  72  70
1720772443,854:    -67  72  70
1720772443,854:     32  72  70
1720772443,854:     16  72  70
1720772443,854:   -122  72  70
1720772443,854:   -250  72  70
1720772443,886:   -264  72  70
1720772443,886:   -201  72  70
1720772443,886:   -177  72  70
1720772443,886:   -235  72  70
1720772443,886:   -305  72  70
1720772443,886:   -299  72  70
1720772443,886:   -219  72  70
1720772443,886:   -135  72  70
1720772443,886:   -102  72  70
1720772443,886:   -112  72  70
1720772443,886:   -129  72  70
1720772443,886:   -139  72  70
1720772443,886:   -150  72  70
1720772443,886:   -166  72  70
1720772443,886:   -181  72  70
1720772443,886:   -198  72  70
1720772443,886:   -240  72  70
1720772443,886:   -310  72  70
1720772443,886:   -372  72  70
1720772443,886:   -375  72  70
1720772443,886:   -305  72  70
1720772443,886:   -207  72  70
1720772443,886:   -138  72  70
1720772443,918:   -110  72  70
1720772443,918:    -78  72  70
1720772443,918:      1  72  70
1720772443,918:    117  72  70
1720772443,918:    209  72  70
1720772443,918:    215  72  70
1720772443,918:    111  72  70
1720772443,918:   -113  72  70
1720772443,918:   -475  72  70
1720772443,918:   -991  72  70
1720772443,918:  -1606  72  70
1720772443,918:  -2169  72  70
1720772443,918:  -2493  72  70
1720772443,918:  -2477  72  70
1720772443,918:  -2133  72  70
1720772443,950:  -1493  72  70
1720772443,950:   -498  72  70
1720772443,950:   1001  72  70
1720772443,950:   3096  72  70
1720772443,950:   5665  72  70
1720772443,950:   8390  72  70
1720772443,950:  10951  72  70
1720772443,950:  13223  72  70
1720772443,950:  15264  72  70
1720772443,950:  17121  72  70
1720772443,950:  18664  72  70
1720772443,950:  19645  72  70
1720772443,950:  19909  72  70
1720772443,950:  19498  72  70
1720772443,950:  18517  72  70
1720772443,982:  16949  74  71
1720772443,982:  14689  74  71
1720772443,982:  11786  74  71
1720772443,982:   8600  74  71
1720772443,982:   5632  74  71
1720772443,982:   3167  74  71
1720772443,982:   1138  74  71
1720772443,982:   -653  74  71
1720772443,982:  -2218  74  71
1720772443,982:  -3329  74  71
1720772443,982:  -3778  74  71
1720772443,982:  -3630  74  71
1720772443,982:  -3208  74  71
1720772443,982:  -2869  74  71
1720772443,982:  -2807  74  71
1720772444,014:  -3017  74  71
1720772444,014:  -3383  74  71
1720772444,014:  -3759  74  71
1720772444,014:  -4039  74  71
1720772444,014:  -4211  74  71
1720772444,014:  -4342  74  71
1720772444,014:  -4508  74  71
1720772444,014:  -4687  74  71
1720772444,014:  -4772  74  71
1720772444,014:  -4674  74  71
1720772444,014:  -4421  74  71
1720772444,014:  -4136  74  71
1720772444,014:  -3944  74  71
1720772444,014:  -3908  74  71
1720772444,014:  -4017  74  71
1720772444,045:  -4194  74  71
1720772444,045:  -4319  74  71
1720772444,045:  -4283  74  71
1720772444,045:  -4076  74  71
1720772444,045:  -3804  74  71
1720772444,045:  -3602  74  71
1720772444,045:  -3515  74  71
1720772444,045:  -3481  74  71
1720772444,045:  -3432  74  71
1720772444,045:  -3377  74  71
1720772444,045:  -3371  74  71
1720772444,045:  -3415  74  71
1720772444,045:  -3431  74  71
1720772444,045:  -3347  74  71
1720772444,045:  -3176  74  71
1720772444,076:  -2995  74  71
1720772444,076:  -2856  74  71
1720772444,076:  -2748  74  71
1720772444,076:  -2651  74  71
1720772444,076:  -2591  74  71
1720772444,076:  -2603  74  71
1720772444,076:  -2664  74  71
1720772444,076:  -2691  74  71
1720772444,076:  -2627  74  71
1720772444,076:  -2506  74  71
1720772444,076:  -2413  74  71
1720772444,076:  -2388  74  71
1720772444,076:  -2386  74  71
1720772444,076:  -2339  74  71
1720772444,076:  -2240  74  71
1720772444,076:  -2148  74  71
1720772444,076:  -2105  74  71
1720772444,076:  -2087  74  71
1720772444,076:  -2038  74  71
1720772444,076:  -1950  74  71
1720772444,076:  -1875  74  71
1720772444,076:  -1853  74  71
1720772444,108:  -1853  74  71
1720772444,108:  -1810  74  71
1720772444,108:  -1719  74  71
1720772444,108:  -1647  74  71
1720772444,108:  -1655  74  71
1720772444,108:  -1714  74  71
1720772444,108:  -1732  74  71
1720772444,108:  -1674  74  71
1720772444,108:  -1593  74  71
1720772444,108:  -1563  74  71
1720772444,108:  -1580  74  71
1720772444,108:  -1574  74  71
1720772444,108:  -1513  74  71
1720772444,108:  -1445  74  71
1720772444,108:  -1427  74  71
1720772444,140:  -1443  74  71
1720772444,140:  -1424  74  71
1720772444,140:  -1354  74  71
1720772444,140:  -1292  74  71
1720772444,140:  -1296  74  71
1720772444,140:  -1339  74  71
1720772444,140:  -1334  74  71
1720772444,140:  -1250  74  71
1720772444,140:  -1156  74  71
1720772444,140:  -1130  74  71
1720772444,140:  -1163  74  71
1720772444,140:  -1167  74  71
1720772444,140:  -1089  74  71
1720772444,140:   -973  74  71
1720772444,140:   -906  74  71
1720772444,171:   -904  74  71
1720772444,171:   -899  74  71
1720772444,171:   -822  74  71
1720772444,171:   -694  74  71
1720772444,171:   -589  74  71
1720772444,171:   -546  74  71
1720772444,171:   -520  74  71
1720772444,171:   -451  74  71
1720772444,171:   -346  74  71
1720772444,171:   -271  74  71
1720772444,171:   -268  74  71
1720772444,171:   -301  74  71
1720772444,171:   -299  74  71
1720772444,171:   -255  74  71
1720772444,171:   -220  74  71
1720772444,203:   -232  74  71
1720772444,203:   -248  74  71
1720772444,203:   -199  74  71
1720772444,203:    -87  74  71
1720772444,203:     13  74  71
1720772444,203:     54  74  71
1720772444,203:     81  74  71
1720772444,203:    171  74  71
1720772444,203:    311  74  71
1720772444,203:    398  74  71
1720772444,203:    371  74  71
1720772444,203:    301  74  71
1720772444,203:    306  74  71
1720772444,203:    390  74  71
1720772444,203:    430  74  71
1720772444,203:    323  74  71
1720772444,203:    127  74  71
1720772444,203:    -13  74  71
1720772444,203:    -41  74  71
1720772444,203:    -40  74  71
1720772444,234:   -117  74  71
1720772444,234:   -261  74  71
1720772444,234:   -363  74  71
1720772444,234:   -361  74  71
1720772444,234:   -302  74  71
1720772444,234:   -266  74  71
1720772444,234:   -258  74  71
1720772444,234:   -223  74  71
1720772444,234:   -139  74  71
1720772444,234:    -65  74  71
1720772444,234:    -75  74  71
1720772444,234:   -160  74  71
1720772444,234:   -229  74  71
1720772444,234:   -214  74  71
1720772444,234:   -145  74  71
1720772444,266:   -114  74  71
1720772444,266:   -171  74  71
1720772444,266:   -268  74  71
1720772444,266:   -317  74  71
1720772444,266:   -277  74  71
1720772444,266:   -190  74  71
1720772444,266:   -119  74  71
1720772444,266:    -92  74  71
1720772444,266:    -93  74  71
1720772444,266:   -112  74  71
1720772444,266:   -152  74  71
1720772444,266:   -207  74  71
1720772444,266:   -248  74  71
1720772444,266:   -253  74  71
1720772444,266:   -245  74  71
1720772444,298:   -267  74  71
1720772444,298:   -328  74  71
1720772444,298:   -377  74  71
1720772444,298:   -366  74  71
1720772444,298:   -305  74  71
1720772444,298:   -251  74  71
1720772444,298:   -241  74  71
1720772444,298:   -255  74  71
1720772444,298:   -258  74  71
1720772444,298:   -255  74  71
1720772444,298:   -280  74  71
1720772444,298:   -336  74  71
1720772444,298:   -377  74  71
1720772444,298:   -364  74  71
1720772444,298:   -319  74  71
1720772444,330:   -303  74  71
1720772444,330:   -341  74  71
1720772444,330:   -390  74  71
1720772444,330:   -389  74  71
1720772444,330:   -338  74  71
1720772444,330:   -293  74  71
1720772444,330:   -302  74  71
1720772444,330:   -343  74  71
1720772444,330:   -359  74  71
1720772444,330:   -328  74  71
1720772444,330:   -289  74  71
1720772444,330:   -285  74  71
1720772444,330:   -311  74  71
1720772444,330:   -318  74  71
1720772444,330:   -274  74  71
1720772444,362:   -209  74  71
1720772444,362:   -183  74  71
1720772444,362:   -226  74  71
1720772444,362:   -308  74  71
1720772444,362:   -375  74  71
1720772444,362:   -405  74  71
1720772444,362:   -417  74  71
1720772444,362:   -436  74  71
1720772444,362:   -455  74  71
1720772444,362:   -456  74  71
1720772444,362:   -436  74  71
1720772444,362:   -411  74  71
1720772444,362:   -396  74  71
1720772444,362:   -376  74  71
1720772444,362:   -332  74  71
1720772444,394:   -281  74  71
1720772444,394:   -269  74  71
1720772444,394:   -323  74  71
1720772444,394:   -407  74  71
1720772444,394:   -451  74  71
1720772444,394:   -421  74  71
1720772444,394:   -358  74  71
1720772444,394:   -337  74  71
1720772444,394:   -388  74  71
1720772444,394:   -473  74  71
1720772444,394:   -531  74  71
1720772444,394:   -536  74  71
1720772444,394:   -507  74  71
1720772444,394:   -482  74  71
1720772444,394:   -489  74  71
1720772444,394:   -533  74  71
1720772444,394:   -597  74  71
1720772444,394:   -646  74  71
1720772444,394:   -644  74  71
1720772444,394:   -584  74  71
1720772444,394:   -511  74  71
1720772444,394:   -480  74  71
1720772444,425:   -506  74  71
1720772444,425:   -544  74  71
1720772444,425:   -540  74  71
1720772444,425:   -488  74  71
1720772444,425:   -438  74  71
1720772444,425:   -433  74  71
1720772444,425:   -472  74  71
1720772444,425:   -520  74  71
1720772444,425:   -554  74  71
1720772444,425:   -573  74  71
1720772444,425:   -574  74  71
1720772444,425:   -557  74  71
1720772444,425:   -544  74  71
1720772444,425:   -576  74  71
1720772444,425:   -663  74  71
1720772444,455:   -741  74  71
1720772444,455:   -734  74  71
1720772444,455:   -651  74  71
1720772444,455:   -594  74  71
1720772444,455:   -632  74  71
1720772444,455:   -705  74  71
1720772444,455:   -692  74  71
1720772444,455:   -571  74  71
1720772444,455:   -474  74  71
1720772444,455:   -533  74  71
1720772444,455:   -722  74  71
1720772444,455:   -879  74  71
1720772444,455:   -893  74  71
1720772444,455:   -830  74  71
1720772444,455:   -830  74  71
1720772444,487:   -931  74  71
1720772444,487:  -1022  74  71
1720772444,487:   -987  74  71
1720772444,487:   -851  74  71
1720772444,487:   -744  74  71
1720772444,487:   -748  74  71
1720772444,487:   -819  74  71
1720772444,487:   -861  74  71
1720772444,487:   -842  74  71
1720772444,487:   -818  74  71
1720772444,487:   -846  74  71
1720772444,487:   -913  74  71
1720772444,487:   -962  74  71
1720772444,487:   -967  74  71
1720772444,487:   -952  74  71
1720772444,519:   -944  74  71
1720772444,519:   -936  74  71
1720772444,519:   -902  74  71
1720772444,519:   -845  74  71
1720772444,519:   -810  74  71
1720772444,519:   -841  74  71
1720772444,519:   -926  74  71
1720772444,519:  -1009  74  71
1720772444,519:  -1045  74  71
1720772444,519:  -1036  74  71
1720772444,519:  -1020  74  71
1720772444,519:  -1017  74  71
1720772444,519:  -1012  74  71
1720772444,519:   -981  74  71
1720772444,519:   -932  74  71
1720772444,550:   -894  74  71
1720772444,550:   -890  74  71
1720772444,550:   -920  74  71
1720772444,550:   -972  74  71
1720772444,550:  -1048  74  71
1720772444,550:  -1151  74  71
1720772444,550:  -1255  74  71
1720772444,550:  -1318  74  71
1720772444,550:  -1315  74  71
1720772444,550:  -1277  74  71
1720772444,550:  -1256  74  71
1720772444,550:  -1267  74  71
1720772444,550:  -1275  74  71
1720772444,550:  -1242  74  71
1720772444,550:  -1187  74  71
1720772444,581:  -1165  74  71
1720772444,581:  -1195  74  71
1720772444,581:  -1234  74  71
1720772444,581:  -1234  74  71
1720772444,581:  -1214  74  71
1720772444,581:  -1236  74  71
1720772444,581:  -1309  74  71
1720772444,581:  -1363  74  71
1720772444,581:  -1318  74  71
1720772444,581:  -1193  74  71
1720772444,581:  -1098  74  71
1720772444,581:  -1114  74  71
1720772444,581:  -1213  74  71
1720772444,581:  -1307  74  71
1720772444,581:  -1344  74  71
1720772444,613:  -1347  74  71
1720772444,613:  -1362  74  71
1720772444,613:  -1405  74  71
1720772444,613:  -1463  74  71
1720772444,613:  -1523  74  71
1720772444,613:  -1561  74  71
1720772444,613:  -1542  74  71
1720772444,613:  -1450  74  71
1720772444,613:  -1330  74  71
1720772444,613:  -1268  74  71
1720772444,613:  -1301  74  71
1720772444,613:  -1364  74  71
1720772444,613:  -1366  74  71
1720772444,613:  -1297  74  71
1720772444,613:  -1245  74  71
1720772444,645:  -1291  74  71
1720772444,645:  -1415  74  71
1720772444,645:  -1521  74  71
1720772444,645:  -1546  74  71
1720772444,645:  -1518  74  71
1720772444,645:  -1506  74  71
1720772444,645:  -1537  74  71
1720772444,645:  -1574  74  71
1720772444,645:  -1575  74  71
1720772444,645:  -1541  74  71
1720772444,645:  -1516  74  71
1720772444,645:  -1536  74  71
1720772444,645:  -1593  74  71
1720772444,645:  -1648  74  71
1720772444,645:  -1670  74  71
1720772444,677:  -1663  74  71
1720772444,677:  -1654  74  71
1720772444,677:  -1656  74  71
1720772444,677:  -1656  74  71
1720772444,677:  -1640  74  71
1720772444,677:  -1632  74  71
1720772444,677:  -1668  74  71
1720772444,677:  -1744  74  71
1720772444,677:  -1805  74  71
1720772444,677:  -1809  74  71
1720772444,677:  -1789  74  71
1720772444,677:  -1825  74  71
1720772444,677:  -1942  74  71
1720772444,677:  -2061  74  71
1720772444,677:  -2085  74  71
1720772444,677:  -2017  74  71
1720772444,677:  -1949  74  71
1720772444,677:  -1948  74  71
1720772444,677:  -1964  74  71
1720772444,677:  -1900  74  71
1720772444,677:  -1743  74  71
1720772444,677:  -1584  74  71
1720772444,677:  -1521  74  71
1720772444,709:  -1570  74  71
1720772444,709:  -1701  74  71
1720772444,709:  -1923  74  71
1720772444,709:  -2287  74  71
1720772444,709:  -2817  74  71
1720772444,709:  -3447  74  71
1720772444,709:  -4036  74  71
1720772444,709:  -4454  74  71
1720772444,709:  -4600  74  71
1720772444,709:  -4388  74  71
1720772444,709:  -3742  74  71
1720772444,709:  -2627  74  71
1720772444,709:  -1044  74  71
1720772444,709:    987  74  71
1720772444,709:   3423  74  71
1720772444,741:   6133  74  71
1720772444,741:   8888  74  71
1720772444,741:  11453  74  71
1720772444,741:  13708  74  71
1720772444,741:  15648  74  71
1720772444,741:  17242  74  71
1720772444,741:  18353  74  71
1720772444,773:  18825  77  73
1720772444,773:  18612  77  73
1720772444,773:  17748  77  73
1720772444,773:  16206  77  73
1720772444,773:  13897  77  73
1720772444,773:  10873  77  73
1720772444,773:   7504  77  73
1720772444,773:   4336  77  73
1720772444,773:   1700  77  73
1720772444,773:   -476  77  73
1720772444,773:  -2442  77  73
1720772444,773:  -4229  77  73
1720772444,773:  -5536  77  73
1720772444,773:  -6042  77  73
1720772444,773:  -5779  77  73
1720772444,773:  -5170  77  73
1720772444,773:  -4722  77  73
1720772444,773:  -4683  77  73
1720772444,773:  -4968  77  73
1720772444,773:  -5342  77  73
1720772444,773:  -5650  77  73
1720772444,773:  -5905  77  73
1720772444,773:  -6192  77  73
1720772444,805:  -6542  77  73
1720772444,805:  -6869  77  73
1720772444,805:  -7044  77  73
1720772444,805:  -7001  77  73
1720772444,805:  -6787  77  73
1720772444,805:  -6508  77  73
1720772444,805:  -6231  77  73
1720772444,805:  -5990  77  73
1720772444,805:  -5830  77  73
1720772444,805:  -5817  77  73
1720772444,805:  -5959  77  73
1720772444,805:  -6150  77  73
1720772444,805:  -6236  77  73
1720772444,805:  -6149  77  73
1720772444,805:  -5949  77  73
1720772444,836:  -5751  77  73
1720772444,836:  -5613  77  73
1720772444,836:  -5525  77  73
1720772444,836:  -5470  77  73
1720772444,836:  -5461  77  73
1720772444,836:  -5492  77  73
1720772444,836:  -5518  77  73
1720772444,836:  -5479  77  73
1720772444,836:  -5370  77  73
1720772444,836:  -5241  77  73
1720772444,836:  -5128  77  73
1720772444,836:  -5022  77  73
1720772444,836:  -4901  77  73
1720772444,836:  -4789  77  73
1720772444,836:  -4743  77  73
1720772444,868:  -4776  77  73
1720772444,868:  -4822  77  73
1720772444,868:  -4806  77  73
1720772444,868:  -4726  77  73
1720772444,868:  -4650  77  73
1720772444,868:  -4624  77  73
1720772444,868:  -4617  77  73
1720772444,868:  -4560  77  73
1720772444,868:  -4441  77  73
1720772444,868:  -4323  77  73
1720772444,868:  -4265  77  73
1720772444,868:  -4254  77  73
1720772444,868:  -4218  77  73
1720772444,868:  -4115  77  73
1720772444,868:  -3983  77  73
1720772444,868:  -3897  77  73
1720772444,868:  -3889  77  73
1720772444,868:  -3916  77  73
1720772444,868:  -3914  77  73
1720772444,868:  -3862  77  73
1720772444,868:  -3795  77  73
1720772444,868:  -3758  77  73
1720772444,900:  -3759  77  73
1720772444,900:  -3775  77  73
1720772444,900:  -3781  77  73
1720772444,900:  -3765  77  73
1720772444,900:  -3725  77  73
1720772444,900:  -3671  77  73
1720772444,900:  -3629  77  73
1720772444,900:  -3628  77  73
1720772444,900:  -3668  77  73
1720772444,900:  -3709  77  73
1720772444,900:  -3701  77  73
1720772444,900:  -3640  77  73
1720772444,900:  -3576  77  73
1720772444,900:  -3569  77  73
1720772444,900:  -3625  77  73
1720772444,930:  -3691  77  73
1720772444,930:  -3704  77  73
1720772444,930:  -3650  77  73
1720772444,930:  -3569  77  73
1720772444,930:  -3502  77  73
1720772444,930:  -3449  77  73
1720772444,930:  -3377  77  73
1720772444,930:  -3271  77  73
1720772444,930:  -3157  77  73
1720772444,930:  -3079  77  73
1720772444,930:  -3053  77  73
1720772444,930:  -3050  77  73
1720772444,930:  -3040  77  73
1720772444,930:  -3028  77  73
1720772444,930:  -3034  77  73
1720772444,977:  -3055  77  73
1720772444,977:  -3057  77  73
1720772444,977:  -3022  77  73
1720772444,977:  -2977  77  73
1720772444,977:  -2955  77  73
1720772444,977:  -2936  77  73
1720772444,977:  -2864  77  73
1720772444,977:  -2728  77  73
1720772444,977:  -2589  77  73
1720772444,977:  -2522  77  73
1720772444,977:  -2517  77  73
1720772444,977:  -2496  77  73
1720772444,977:  -2410  77  73
1720772444,977:  -2307  77  73
1720772444,977:  -2258  77  73
1720772444,977:  -2258  77  73
1720772444,977:  -2232  77  73
1720772444,977:  -2140  77  73
1720772444,977:  -2044  77  73
1720772444,977:  -2027  77  73
1720772444,977:  -2084  77  73
1720772444,977:  -2126  77  73
1720772444,977:  -2097  77  73
1720772445,009:  -2047  77  73
1720772445,009:  -2065  77  73
1720772445,009:  -2161  77  73
1720772445,009:  -2252  77  73
1720772445,009:  -2259  77  73
1720772445,009:  -2194  77  73
1720772445,009:  -2131  77  73
1720772445,009:  -2124  77  73
1720772445,009:  -2159  77  73
1720772445,009:  -2196  77  73
1720772445,009:  -2225  77  73
1720772445,009:  -2257  77  73
1720772445,009:  -2299  77  73
1720772445,009:  -2340  77  73
1720772445,009:  -2382  77  73
1720772445,041:  -2441  77  73
1720772445,041:  -2519  77  73
1720772445,041:  -2582  77  73
1720772445,041:  -2591  77  73
1720772445,041:  -2540  77  73
1720772445,041:  -2477  77  73
1720772445,041:  -2450  77  73
1720772445,041:  -2462  77  73
1720772445,041:  -2479  77  73
1720772445,041:  -2470  77  73
1720772445,041:  -2446  77  73
1720772445,041:  -2431  77  73
1720772445,041:  -2427  77  73
1720772445,041:  -2412  77  73
1720772445,041:  -2380  77  73
1720772445,073:  -2362  77  73
1720772445,073:  -2389  77  73
1720772445,073:  -2444  77  73
1720772445,073:  -2464  77  73
1720772445,073:  -2417  77  73
1720772445,073:  -2359  77  73
1720772445,073:  -2383  77  73
1720772445,073:  -2502  77  73
1720772445,073:  -2614  77  73
1720772445,073:  -2604  77  73
1720772445,073:  -2487  77  73
1720772445,073:  -2392  77  73
1720772445,073:  -2411  77  73
1720772445,073:  -2488  77  73
1720772445,073:  -2491  77  73
1720772445,073:  -2387  77  73
1720772445,073:  -2277  77  73
1720772445,073:  -2257  77  73
1720772445,073:  -2278  77  73
1720772445,073:  -2217  77  73
1720772445,073:  -2055  77  73
1720772445,073:  -1921  77  73
1720772445,105:  -1933  77  73
1720772445,105:  -2028  77  73
1720772445,105:  -2032  77  73
1720772445,105:  -1886  77  73
1720772445,105:  -1739  77  73
1720772445,105:  -1769  77  73
1720772445,105:  -1963  77  73
1720772445,105:  -2123  77  73
1720772445,105:  -2104  77  73
1720772445,105:  -1977  77  73
1720772445,105:  -1920  77  73
1720772445,105:  -1994  77  73
1720772445,105:  -2082  77  73
1720772445,105:  -2058  77  73
1720772445,105:  -1941  77  73
1720772445,137:  -1853  77  73
1720772445,137:  -1852  77  73
1720772445,137:  -1873  77  73
1720772445,137:  -1836  77  73
1720772445,137:  -1762  77  73
1720772445,137:  -1724  77  73
1720772445,137:  -1736  77  73
1720772445,137:  -1733  77  73
1720772445,137:  -1675  77  73
1720772445,137:  -1620  77  73
1720772445,137:  -1634  77  73
1720772445,137:  -1688  77  73
1720772445,137:  -1676  77  73
1720772445,137:  -1568  77  73
1720772445,137:  -1463  77  73
1720772445,169:  -1475  77  73
1720772445,169:  -1574  77  73
1720772445,169:  -1624  77  73
1720772445,169:  -1551  77  73
1720772445,169:  -1447  77  73
1720772445,169:  -1450  77  73
1720772445,169:  -1564  77  73
1720772445,169:  -1653  77  73
1720772445,169:  -1611  77  73
1720772445,169:  -1492  77  73
1720772445,169:  -1433  77  73
1720772445,169:  -1492  77  73
1720772445,169:  -1582  77  73
1720772445,169:  -1594  77  73
1720772445,169:  -1524  77  73
1720772445,200:  -1466  77  73
1720772445,200:  -1491  77  73
1720772445,200:  -1564  77  73
1720772445,200:  -1592  77  73
1720772445,200:  -1530  77  73
1720772445,200:  -1415  77  73
1720772445,200:  -1317  77  73
1720772445,200:  -1270  77  73
1720772445,200:  -1254  77  73
1720772445,200:  -1239  77  73
1720772445,200:  -1217  77  73
